seq,timestamp_ms,red,ir,red_corrected,ir_corrected
1,135093,40603,100950,-10.788063428329941,-4.396234730692758
2,135113,40616,100938,2.142788596852313,-15.10566862684167
3,135133,40603,100945,-12.051503149987948,-7.542110206633485
4,135153,40612,100939,-0.7691659035321763,-14.245303360060205
5,135173,40621,100933,8.087457181992205,-20.55219023030498
6,135193,40606,100932,-7.905470850113863,-20.737921795986853
7,135213,40597,100920,-16.592344508449596,-32.69311072634576
8,135233,40599,100916,-16.334325071064363,-37.22748557144673
9,135253,40588,100905,-25.38853841628248,-47.1797950473888
10,135276,40596,100902,-17.972481304628026,-49.652008655223504
11,135296,40577,100860,-36.07693190770778,-91.47686886617505
12,135316,40574,100846,-38.617089018479085,-105.54742244541315
13,135339,40575,100839,-37.74546329091838,-111.47599273908492
14,135349,40576,100847,-36.88873952489934,-102.58198732548696
15,135369,40558,100785,-53.58064584985831,-163.80219354667395
16,135399,40558,100788,-51.30330384095476,-160.5006371523248
17,135409,40562,100759,-48.04163730469722,-188.575193785417
18,135439,40553,100771,-56.57222288850344,-176.1500100642008
19,135459,40543,100725,-67.05595439709367,-221.08594965957153
20,135479,40533,100716,-77.63519911360451,-228.5885708903238
21,135499,40551,100699,-57.829810893772716,-244.5222136956769
22,135519,40549,100700,-59.18389270573591,-242.83031338591826
23,135534,40547,100694,-61.76331121553145,-247.33882467086707
24,135555,40535,100736,-73.45895470161709,-202.98946998058722
25,135575,40541,100723,-66.31687141542189,-215.67101986430148
26,135598,40540,100720,-66.70269270065776,-218.3370178133182
27,135613,40528,100714,-79.44016926905209,-222.8035093096001
28,135633,40534,100721,-74.10642994820039,-213.56818430337887
29,135653,40539,100719,-66.60809665936492,-214.66785721847916
30,135681,40541,100718,-62.58130159239299,-215.44231963817123
31,135691,40538,100704,-65.92413925662798,-228.3501849651626
32,135711,40529,100716,-76.13414642931086,-214.60244044379866
33,135733,40543,100705,-61.324915196105934,-224.80066246849356
34,135757,40535,100704,-67.82392587353853,-224.11627814386844
35,135777,40532,100689,-71.86464164001993,-237.39484932736016
36,135800,40547,100709,-55.62668172832119,-216.13555634323356
37,135811,40523,100680,-79.11256307761568,-243.95685965705871
38,135831,40526,100713,-75.48536795430768,-210.996527275254
39,135851,40526,100697,-74.53015523722394,-225.60715685726353
40,135877,40526,100704,-74.09287261364999,-216.6826172186526
41,135890,40531,100718,-68.3924216227574,-201.7211074925286
42,135910,40523,100705,-75.73076439079539,-214.06987317753922
43,135935,40525,100708,-74.05998940961864,-209.80209293694674
44,135960,40536,100701,-62.507957358232446,-216.11904909222935
45,135974,40524,100718,-73.61725833829624,-198.53169861756163
46,135994,40536,100720,-60.96853625943246,-195.96713405029837
47,136014,40537,100721,-59.35735286309001,-193.07498520828844
48,136035,40529,100707,-67.81714945692869,-205.62281368158952
49,136055,40524,100737,-73.7201829609285,-175.22602196840882
50,136076,40530,100765,-67.14091245200328,-146.98199785886297
51,136096,40551,100817,-45.39857184079849,-94.6317824529126
52,136116,40563,100849,-34.39302857445357,-62.25475653688668
53,136137,40579,100870,-19.428911988448668,-40.86193250068133
54,136159,40581,100914,-16.09115543295072,3.4863213293050324
55,136169,40590,100897,-6.716630881312366,-13.635160589404425
56,136193,40598,100916,0.9945161543845131,5.189811060579121
57,136205,40579,100897,-17.367673013581175,-13.768027463513627
58,136236,40579,100919,-18.087815393538463,8.584934284349682
59,136256,40587,100912,-11.452889366868277,0.7798948504668086
60,136282,40591,100929,-6.408273618622272,18.297037211801754
61,136296,40587,100911,-10.531765840519268,0.7261906960054478
62,136319,40598,100906,0.6469603725696533,-4.498535791762387
63,136330,40584,100908,-12.175431510761975,-3.062214962471458
64,136350,40587,100907,-8.274535122461476,-4.524952273771108
65,136380,40571,100890,-24.733778039601145,-21.46879045923158
66,136400,40580,100879,-17.431755257077075,-31.33413026867707
67,136420,40582,100862,-14.226052877427815,-47.455229767487275
68,136443,40579,100842,-17.448145308516857,-67.98187048964827
69,136460,40581,100852,-14.993812705027992,-58.061098681694745
70,136479,40578,100895,-17.69085235205923,-15.371765806073125
71,136495,40514,100862,-81.8582102025153,-48.05371305047055
72,136517,40562,100842,-35.29731303072194,-66.49079080219974
73,136537,40568,100861,-27.909167588985653,-47.31234510823555
74,136559,40565,100859,-29.700775632323367,-49.21159601122342
75,136570,40568,100850,-26.685358814846403,-58.301212335191316
76,136602,40563,100840,-30.505883137294152,-67.85645604128764
77,136620,40571,100845,-23.139600290079223,-62.27813864801245
78,136631,40554,100840,-40.592316070904,-66.92940097529988
79,136659,40557,100850,-37.28276368113136,-57.14860141471094
80,136679,40559,100845,-36.21437353995676,-61.29692506571517
81,136700,40527,100836,-67.8664081678476,-70.11629656109933
82,136720,40570,100820,-24.056234563032767,-86.3242893563124
83,136730,40559,100801,-34.83502012283286,-104.86763890999549
84,136753,40573,100865,-20.42324663445507,-40.060394225623256
85,136768,40568,100841,-26.160160772655356,-63.57556844518392
86,136795,40569,100839,-25.10315757754438,-65.6990951877858
87,136817,40558,100848,-34.80173423084012,-56.44734887194135
88,136837,40559,100850,-34.01932308708319,-53.874474490457885
89,136857,40577,100851,-15.690924603863294,-52.56243648852124
90,136877,40560,100863,-32.36698073990683,-40.65752430687391
91,136895,40579,100870,-13.820509895074544,-32.911637478228535
92,136906,40572,100859,-20.683078582207877,-43.818695592824554
93,136937,40560,100870,-31.645415392343462,-33.20863731610985
94,136959,40575,100880,-17.255065604867628,-22.9638430411012
95,136982,40568,100868,-24.088254616137277,-34.27933861997675
96,136992,40573,100883,-18.70370671574565,-19.189493921220784
97,137012,40570,100885,-21.896545769830254,-17.56263235960308
98,137038,40577,100880,-14.430085529169958,-22.347911492462813
99,137053,40573,100880,-18.659529593592364,-22.108348512133194
100,137072,40589,100889,-2.8834997871841574,-12.949618020205733
101,137100,40575,100879,-16.847415297618127,-23.014656192494567
102,137120,40575,100894,-15.689039078355437,-8.120662849645022
103,137140,40573,100927,-17.95540755333724,25.1702344792918
104,137160,40580,100920,-11.41267317133009,18.150951063781406
105,137180,40565,100927,-26.468152121446103,24.66330210802045
106,137193,40568,100910,-23.60304317404245,7.5367500590288445
107,137215,40570,100884,-21.215930676907295,-18.255236450234836
108,137235,40568,100908,-22.512824291883398,5.65121186424733
109,137260,40573,100887,-17.460778991809075,-15.065288544298333
110,137280,40598,100893,6.794370729798016,-8.96261853743338
111,137301,40573,100899,-17.557752149422775,-3.1799996922543277
112,137321,40569,100883,-21.660026157918733,-19.115418692573627
113,137331,40569,100855,-21.329636920197615,-46.816787988123586
114,137364,40576,100871,-13.991369899024036,-30.7575857865243
115,137386,40584,100862,-6.4999604666684085,-39.72039970904912
116,137396,40572,100821,-18.63461482595573,-80.16544717176625
117,137417,40586,100867,-4.4574394957031265,-33.67208142366739
118,137438,40574,100863,-16.191630484401138,-37.60092975423361
119,137459,40568,100866,-21.656671678226274,-34.95665516704579
120,137480,40564,100868,-26.352076942639748,-32.513453205934496
121,137493,40547,100861,-43.07232266678273,-39.08287161112518
122,137519,40567,100871,-23.32311713051392,-28.959891793179565
123,137539,40579,100868,-11.296086336538824,-32.0838235537056
124,137559,40562,100888,-27.894488593658238,-12.257916544005388
125,137571,40574,100875,-15.743404811943654,-24.943375631091612
126,137593,40573,100872,-16.61651521586228,-27.430906900047443
127,137617,40571,100878,-18.106301283723575,-21.30137918726943
128,137640,40575,100874,-14.086547263651632,-25.43732119389663
129,137663,40580,100870,-9.626099320217829,-29.311522067407264
130,137682,40572,100881,-17.757951657625384,-18.06660758125107
131,137693,40558,100883,-31.49978168070571,-16.06891665722432
132,137717,40571,100882,-18.545001182302894,-17.26575811848426
133,137738,40560,100892,-29.390703197309417,-7.136944302389249
134,137759,40573,100887,-16.088970796724748,-11.675915177991554
135,137780,40592,100876,1.9277544578704857,-22.713602571271714
136,137795,40572,100889,-17.164353977272718,-10.322117374936072
137,137822,40577,100890,-11.867201304751372,-8.770823409689282
138,137845,40565,100880,-23.811360713084845,-18.788357608800688
139,137858,40565,100896,-23.61365044079402,-3.1492338572788845
140,137879,40570,100901,-18.456007951960757,2.3407471266254403
141,137900,40565,100894,-24.08471697602674,-4.449642390049696
142,137921,40594,100887,5.313208335341822,-11.945211540789662
143,137932,40576,100923,-12.096807802489772,23.752262412010822
144,137965,40591,100906,2.6094991553715907,6.871767331276931
145,137985,40575,100895,-13.30189181653283,-4.162895113793838
146,138004,40576,100913,-12.171193428294519,13.56163018295861
147,138014,40591,100904,2.5623660660274545,4.549275990221497
148,138035,40593,100922,3.9301246730523216,23.11277694303009
149,138056,40591,100919,2.4940469043942173,20.060129805716706
150,138077,40593,100937,3.8227177784381023,37.616750318280324
151,138100,40593,100945,3.626998774082394,45.43055605608166
152,138116,40580,100950,-9.109987513629466,50.195819667516204
153,138134,40588,100954,-1.2209757131419918,53.84616001459
154,138162,40600,100963,10.897875671943385,62.53271351378793
155,138173,40599,100908,9.545100840345864,7.4982379709048494
156,138198,40595,100949,5.849026986960442,48.49657095689852
157,138218,40598,100947,8.55226143047507,46.203850780638525
158,138234,40596,100946,6.753532957738673,44.798003264162595
159,138266,40596,100941,7.1297821631449985,39.605068831731394
160,138289,40588,100905,-0.7749589865736262,3.621814079640721
161,138304,40593,100933,4.574662929861999,31.454003589982083
162,138315,40598,100927,8.55169519803938,25.43705984342633
163,138338,40598,100923,8.081626821834995,21.26042923872413
164,138360,40601,100942,11.65116358204192,39.81793832922477
165,138382,40591,100921,0.8884436335796968,18.697285224352736
166,138394,40572,100931,-17.116480187711186,28.951370502140616
167,138419,40594,100945,4.8522586934677285,42.51230150183911
168,138434,40595,100941,5.42493072223874,38.05742602225446
169,138463,40598,100958,7.4498372985421515,55.11721510908524
170,138473,40598,100969,7.534874504941788,65.70136653771715
171,138494,40600,100967,9.024237445941747,63.3717905321314
172,138515,40586,100962,-4.743680762154822,57.605826288368945
173,138538,40602,100957,11.797763022444556,52.63384785980101
174,138570,40601,100965,10.455952529911084,60.61921470963371
175,138584,40588,100963,-2.6422478848749167,57.91423845226238
176,138597,40591,100958,0.035241592894398543,52.336000284044125
177,138620,40606,100970,14.902505017043957,64.07991096208893
178,138642,40602,100963,10.775951921075599,57.02740755796056
179,138653,40571,100975,-19.636722646095077,68.74210432880217
180,138676,40601,100971,10.56692590259843,64.56815482964002
181,138696,40609,100966,17.800089324568553,59.02327050036246
182,138719,40610,100982,18.34532097825899,74.48537619313868
183,138738,40593,100971,1.2420053333576844,63.42637038705095
184,138764,40594,100963,2.538189684577194,55.10989990273013
185,138775,40602,100919,10.56476078400314,11.160879975832732
186,138797,40608,100976,16.44567269198432,67.6606595984859
187,138818,40621,100990,29.38958885776122,80.83830145767593
188,138830,40607,100984,15.135105305202451,74.45942246524383
189,138850,40609,100959,16.460169380986166,49.55920440534559
190,138886,40601,100977,7.588830729642197,67.3043880216689
191,138897,40638,100991,44.85355078714752,80.65188949368856
192,138919,40597,100978,3.6089506356593093,67.16060186233442
193,138940,40594,100982,0.20602446572875,71.00098115231981
194,138960,40609,100982,15.436022822514644,70.71586949148119
195,138983,40611,100984,16.73021302514697,72.22538123562879
196,138994,40594,100981,-0.023169207848676265,68.77045952847791
197,139021,40610,100986,17.240883986231836,73.50443838693238
198,139047,40606,100976,12.937954413488729,63.39212737911107
199,139058,40610,100986,16.748359133715795,72.92732859738655
200,139078,40629,100987,36.04723999350669,73.46398173021956
201,139098,40606,100962,12.823368592060268,48.162504598249754
202,139118,40609,100973,15.643024519061168,58.86946471027408
203,139142,40604,100974,10.654127841314157,60.00559592385647
204,139153,40605,100968,11.466054196475797,53.52619687083282
205,139171,40612,100967,18.64085571349612,51.72665602902834
206,139191,40627,100984,32.88616053213776,68.54948158072399
207,139226,40601,100984,6.541347550289349,68.5657120817496
208,139236,40609,100977,14.224180352148359,60.94780701180571
209,139257,40609,100980,14.46099536943407,63.347255573704054
210,139282,40608,100995,13.02581751482834,78.33354226978737
211,139295,40606,100986,10.936416424028994,69.05272773907078
212,139310,40619,100984,24.160371649747027,66.56780629623171
213,139340,40611,101004,16.675110153232264,86.07959888970181
214,139354,40605,100992,10.297996805228145,73.88912088076282
215,139375,40608,101006,12.762357367444666,87.4952231349567
216,139396,40615,100991,20.29422850675538,71.68006231205361
217,139417,40621,101000,26.167631873311883,80.37443433873396
218,139438,40618,101010,22.655852873277652,90.18603454893972
219,139468,40627,101001,31.46831507140222,80.66166201524933
220,139490,40612,101010,15.954407933213174,89.173331286561
221,139503,40619,101018,23.029957734016442,96.65198886503231
222,139514,40618,101008,22.025172082416436,86.28971331525902
223,139535,40632,101016,36.18534325789945,93.6124844946532
224,139557,40624,101028,27.409973796443612,105.16718515746321
225,139577,40617,101021,20.012116794209234,97.82517677777537
226,139605,40625,101023,28.218676454624486,99.183425841179
227,139631,40630,101036,33.038409791183845,111.51862803654309
228,139648,40560,101045,-36.67583001612161,119.96825362043901
229,139663,40629,101031,31.875463383650615,105.57060815817671
230,139674,40622,101045,24.790820847507877,118.96706275295084
231,139694,40628,101030,30.396267559435238,103.39362719334076
232,139715,40625,101037,27.037237912442762,109.90618491446855
233,139737,40617,101059,18.770349957098343,130.94707798786493
234,139758,40628,101043,30.06332628009921,114.33382497791276
235,139779,40630,101044,31.930293591732745,114.86576149075819
236,139801,40624,101045,25.52892684400948,115.44599729985248
237,139823,40627,101044,28.79487879342448,113.80522187160243
238,139843,40626,101067,27.9305666471955,135.98699991323755
239,139863,40623,101062,25.014214120980835,130.11517031219557
240,139874,40621,101075,22.920827855889748,142.34452636726968
241,139895,40628,101028,29.410979389971963,94.9343062431115
242,139930,40641,101028,41.80709174279248,94.70461165203858
243,139949,40620,101020,20.93531758759036,86.17371851488369
244,139969,40626,101038,26.90942227787454,103.34919324691985
245,139980,40621,101036,21.738924771900262,100.70161608972994
246,140001,40627,101043,26.85676679236209,107.47435118322298
247,140021,40633,101050,32.23268404544097,114.32332588422912
248,140045,40636,101042,35.459878751129594,105.42126280627825
249,140067,40658,101031,57.06277664027419,93.72171161039695
250,140087,40655,101039,53.576389137370256,101.35935918157419
251,140099,40646,101055,44.34113202217399,116.86188648758204
252,140120,40642,101059,40.79084633412184,120.39889700817528
253,140142,40640,101061,38.38536645118704,121.64300698706268
254,140162,40636,101054,34.383365502581185,113.92734483357167
255,140183,40672,101071,70.06329091709318,130.27041065968996
256,140207,40650,101108,47.61418571410741,166.60910189668914
257,140229,40636,101080,33.218818749499306,137.87588319044704
258,140248,40660,101066,57.39774043060444,123.07332306742336
259,140259,40639,101066,36.19518106065376,122.41564023664947
260,140280,40632,101071,28.548059732216394,127.00083351373662
261,140301,40640,101082,36.851410870925214,137.4918753879826
262,140322,40636,101085,32.726459973282175,139.21818137193395
263,140344,40644,101071,40.7551160539802,124.7307658131357
264,140361,40635,101097,30.94548353632321,150.25413318663064
265,140382,40651,101088,46.296985899558614,140.66996336669635
266,140395,40643,101087,38.31227746197261,138.79756937976202
267,140417,40633,101090,28.741949303978824,140.7691531019257
268,140440,40659,101071,54.17324429278362,121.49347401699993
269,140464,40638,101078,33.27424212639752,127.50973242929817
270,140475,40661,101074,55.92522154185582,122.840701390334
271,140498,40654,101074,47.901906766818364,122.60384256885065
272,140526,40647,101076,40.78650351611139,123.8657325600173
273,140545,40647,101082,40.90307590474677,129.00194297826016
274,140556,40638,101075,31.887714367734795,121.33546385548794
275,140579,40652,101087,45.57027599665554,132.8096286880902
276,140602,40652,101096,45.18791947829185,141.308127916776
277,140614,40638,101076,31.058783664422634,120.59699037011306
278,140642,40641,101074,34.02127742856345,117.74855670972471
279,140659,40645,101075,37.907676631323866,118.13601649535586
280,140687,40647,101072,39.79061692180172,114.66721000568853
281,140697,40659,101085,51.36161047086917,127.03494753028775
282,140720,40627,101072,19.624104092356873,113.58988474754257
283,140742,40642,101055,34.03239478873334,96.08667694270036
284,140765,40643,101072,35.170865285920044,112.47826504060546
285,140777,40655,101054,46.80012929532314,93.91878837088596
286,140809,40653,101061,44.58587569887127,100.49437017020178
287,140816,40636,101088,27.322261992677024,126.9235776897585
288,140836,40694,101061,84.8116687304838,99.38187062497632
289,140863,40647,101060,37.61926593522473,97.6181280760989
290,140883,40643,101055,33.545981321618584,92.24340977977548
291,140905,40653,101071,43.70459749446321,107.97935687798972
292,140915,40672,101061,61.994511470094224,97.55798381855811
293,140945,40652,101069,42.22607418729864,104.79276003101212
294,140959,40648,101086,37.805312205411724,121.21526202005217
295,140979,40671,101057,60.150001027311106,91.82966128119672
296,141003,40653,101073,42.033327911604985,107.32295282010932
297,141025,40658,101068,46.69339911347335,101.66488588291294
298,141036,40667,101107,55.53699403216426,139.95687741670292
299,141058,40665,101068,53.34330784308099,100.61989159555672
300,141087,40657,101078,45.612546526583465,109.9380917377348
301,141101,40650,101080,38.29633649224314,111.13360128507978
302,141119,40654,101086,41.72945838961289,116.65068058358997
303,141139,40667,101078,53.486717736911736,108.34473542863087
304,141165,40662,101086,47.7078306606862,115.77439753967008
305,141187,40664,101077,50.807625926281105,105.94356142909398
306,141197,40658,101067,44.829234960553045,95.45041164437464
307,141219,40671,101091,57.195997630269154,119.23478790290643
308,141236,40667,101086,53.14700094744615,113.46951122789152
309,141261,40669,101097,54.70412813063699,123.61698361546112
310,141283,40668,101101,53.4884586699131,127.05972867216401
311,141296,40659,101090,44.535605132608126,115.62851026559986
312,141320,40660,101094,45.794954497603726,118.73774758225
313,141342,40660,101103,45.286581023003016,127.07781169257731
314,141363,40658,101107,42.291547173273884,131.0409373791418
315,141387,40663,101115,47.02260232031641,137.86565316953127
316,141400,40669,101101,52.43385853282038,123.09109069208307
317,141412,40663,101101,46.37296743196366,122.38746256191016
318,141432,40677,101102,59.86870466364232,122.96521006524978
319,141464,40676,101118,58.641622761846264,138.2929143995041
320,141485,40673,101127,55.76599666819959,146.45906851258448
321,141505,40661,101083,43.393797525946674,102.248739995186
322,141525,40661,101077,43.53942031037006,95.77721839040072
323,141550,40674,101047,56.75912058658038,65.27679907198579
324,141564,40673,101040,55.7032764728488,57.88358235420336
325,141580,40661,101083,43.29946317088062,100.43565594130578
326,141608,40671,101096,52.28916820532384,113.00101787499202
327,141620,40673,101071,54.00882733832167,87.60794769649333
328,141645,40633,101081,14.60657568817217,97.18645352481758
329,141667,40660,101020,40.22838246975441,35.58946748043936
330,141684,40649,101058,30.77361249353318,73.20659853282422
331,141706,40659,101060,39.644029431934115,75.41859703333472
332,141733,40651,101037,30.790578641251678,52.17295082518103
333,141743,40637,101034,16.756521773184588,48.66304825008419
334,141765,40679,101041,58.51810741078259,54.8907178647049
335,141785,40639,101039,18.46242663226245,53.108974176955826
336,141805,40648,101051,28.018460126609153,65.23151260832742
337,141816,40650,101060,29.780951466633994,73.74371743159372
338,141839,40653,101025,32.33056526767658,38.2297643632484
339,141857,40644,101023,23.265398361992496,35.840674609891764
340,141876,40658,101036,37.38877864216607,48.710697931985024
341,141910,40646,101033,25.456048528031214,45.6896295864406
342,141920,40656,101029,35.47771616616406,41.31081450215728
343,141940,40654,101012,33.61491108986905,24.07794613530836
344,141967,40653,101029,31.828562743239527,41.084585874761764
345,141978,40633,101016,11.862185939826706,27.904925491507875
346,142001,40644,101010,22.69130449986386,21.560004789511943
347,142034,40648,101021,26.36910319232895,32.46463209438804
348,142050,40641,101020,18.808907893920722,31.48073164816054
349,142062,40647,100980,24.45946809368614,-8.675984235956236
350,142082,40638,101016,16.112254239483125,26.901279679653598
351,142102,40646,101009,22.98715937724841,19.74413218603116
352,142122,40660,101013,36.13025387015094,23.740635528080713
353,142144,40642,101025,17.713196901582748,35.87483099888057
354,142166,40638,101018,13.800866179400161,28.72682621739441
355,142185,40631,101014,7.3745350365772975,24.336198724713782
356,142196,40659,101025,35.67347027786867,35.240968876800466
357,142218,40657,101039,33.02428509386134,49.11788367723751
358,142239,40644,101034,20.154878122961073,43.91803551413927
359,142260,40650,101013,26.5200528947093,22.60883457975169
360,142281,40646,101024,22.794753134083695,33.36948060727991
361,142296,40664,101033,40.683832235421725,42.337591881523686
362,142322,40662,101011,38.58958734651192,20.241209549484278
363,142351,40660,101012,35.99077257796339,21.123666626754964
364,142365,40670,101023,45.62756858076684,31.815797929855126
365,142386,40667,101012,42.10041374654035,20.64401672643254
366,142397,40650,100972,24.59774042317602,-19.239554302928248
367,142418,40642,101021,17.41601458618675,29.706212802239996
368,142444,40652,101004,26.333311591812567,12.899528787553194
369,142456,40662,101011,36.13939186360916,19.598676021001907
370,142476,40661,101017,35.04482301707645,25.062124130402086
371,142507,40669,101021,42.5275578411996,29.310165130111578
372,142519,40662,101029,35.198571459607884,37.28224966954573
373,142541,40659,101031,32.237539908747394,38.68421386612325
374,142562,40660,101029,33.18036131179324,35.98159815054033
375,142591,40659,101035,30.643294604915692,42.412507198148695
376,142609,40660,101038,32.274601460722224,45.02365598385881
377,142620,40675,101034,47.429026816797716,40.700851368927566
378,142640,40677,101042,48.793950581406946,48.26092088754088
379,142667,40658,101046,30.178010748878933,52.265641118176454
380,142678,40666,101053,37.859841669328645,59.068948959871854
381,142698,40665,101040,36.46641132245323,45.56298217106876
382,142720,40668,101045,39.35377243728564,50.408563713317704
383,142755,40663,101042,34.277158262246196,47.20300226687423
384,142759,40643,101047,14.180534658099493,51.92509951527419
385,142779,40653,101031,23.68723337024904,35.63417502536975
386,142806,40673,101043,43.730087260206446,47.30589730623619
387,142817,40652,101058,22.650386436771676,61.99983298046871
388,142839,40680,101055,50.05427831433746,58.95295895777934
389,142862,40653,101055,22.83777026551398,58.64089090690558
390,142885,40674,101056,43.46254974026799,58.94860202357831
391,142902,40664,101046,33.404903006480986,48.721926238424786
392,142921,40667,101055,36.28237062095148,57.71473605323411
393,142948,40676,101045,44.87199829467626,47.510725417380726
394,142960,40670,101051,38.63013771696238,53.02816386813041
395,142982,40670,101053,39.03783910230563,54.798344375119896
396,143003,40666,101038,34.58298591317205,39.7610334705927
397,143024,40662,101063,30.52023508243888,64.32686422152857
398,143038,40666,101054,34.13002117523722,54.893796358654846
399,143062,40674,101050,41.4925858299429,50.730492159386465
400,143089,40674,101071,41.82526831221371,71.36457222578359
401,143109,40668,101071,35.76800784471894,70.92760886760226
402,143128,40690,101071,57.34913461869171,70.51379956718533
403,143140,40725,101066,91.96933565493038,65.22312030614768
404,143161,40671,101049,36.89975286426976,48.08134616184197
405,143174,40677,101046,43.05862068313383,44.80085336414749
406,143205,40680,101034,45.84316099689417,32.67956443744325
407,143235,40676,101030,41.9304143747581,28.375368863878293
408,143247,40669,101030,34.86629686860752,28.300797480643766
409,143258,40689,101038,54.385921135069054,36.322654468637005
410,143280,40667,101032,31.90526063105,30.067878641241233
411,143301,40676,101021,41.340003876152,18.647979140557478
412,143322,40671,101001,35.77125635348525,-1.161217551980763
413,143340,40659,101019,23.467512919799283,17.050505310005814
414,143356,40663,101010,27.11318506135094,7.993183079776629
415,143376,40687,101024,51.12951705485568,21.472261447197816
416,143404,40653,101024,17.10554048296718,21.467205301684622
417,143427,40668,101007,31.579380437680204,4.883599686266457
418,143438,40659,101025,22.72698799100518,22.719695301006883
419,143461,40675,101023,38.82962301538407,20.024254198487082
420,143487,40669,101018,32.15046060401955,15.2584267073103
421,143504,40671,101017,34.153477383129726,14.249825214505156
422,143526,40687,101024,49.99906777562798,21.005485998191812
423,143547,40669,101005,31.736029705233918,1.9030979664444987
424,143562,40677,101042,39.84732693002314,38.58723404251337
425,143585,40663,101024,25.20100636879342,20.664890547671998
426,143599,40682,101018,44.31402999280854,14.77505707731485
427,143626,40671,101021,32.62642200741321,17.639143331638135
428,143639,40688,101019,49.64464730695817,15.293602663064789
429,143659,40675,101024,36.757702290891224,20.12089412414124
430,143687,40676,101026,36.92568751263017,22.4129776870846
431,143710,40673,101017,34.35724684247173,13.213958498038652
432,143723,40679,100978,40.126543746885,-25.70934845170561
433,143748,40671,101017,31.82846878721977,13.310245376467039
434,143761,40670,101026,30.75965438057369,21.960885631042956
435,143786,40668,101020,28.61210004402678,15.820137590085137
436,143802,40668,101027,28.361531738863487,23.002375301733696
437,143824,40662,101035,22.24404003960824,31.0670068628054
438,143845,40685,101030,44.353587987671055,25.58345464300819
439,143859,40680,101026,39.6727314735732,21.122256342894147
440,143880,40671,101033,30.489658585276192,28.078775901310596
441,143903,40679,101018,37.620954859478026,13.657844324062438
442,143935,40685,101023,44.44594768644818,17.733808733484913
443,143941,40698,101019,57.20782517665046,13.645578012673285
444,143961,40648,101011,6.893103273157947,6.002884677163051
445,143981,40670,101017,28.579428519058954,12.047647569931243
446,144001,40688,101008,46.287349527506116,2.8550157062830728
447,144025,40673,101000,31.469999361298854,-5.158346788588802
448,144046,40666,100989,23.931758740184506,-15.883911130896982
449,144059,40653,101013,11.154508746115344,7.944223942849669
450,144091,40659,100989,16.452123101529963,-15.819664039535652
451,144101,40676,100975,33.197821905963956,-29.71524310158499
452,144126,40675,100983,32.02471328315425,-21.784333382222226
453,144151,40668,100980,25.22818847604475,-24.610657361761113
454,144164,40666,100984,23.117981517656645,-20.47637036621629
455,144185,40669,100984,25.538505542530558,-20.540592349007397
456,144199,40696,101000,53.13438002098735,-4.614229529432383
457,144221,40668,100998,23.98899961359582,-6.652145895640438
458,144250,40682,101000,37.767579456487745,-3.9762734179497974
459,144275,40678,100999,33.78663311186601,-5.479721877051583
460,144286,40673,101004,28.792148660949195,-0.7698562731333851
461,144306,40662,100983,17.747036106780122,-21.516699824805666
462,144322,40670,100998,25.590977768448592,-6.136713321454624
463,144350,40671,100996,26.568778261641427,-8.075521631405948
464,144361,40673,100997,28.45427769066566,-7.3317722584316645
465,144388,40676,100997,30.68805446922704,-7.475033647110879
466,144400,40685,100976,39.55194341728342,-28.157494233283252
467,144427,40665,100980,19.84952152007515,-23.921318111920037
468,144454,40689,100989,43.92670895940535,-15.158677461893788
469,144466,40673,101009,27.56406146084621,4.731177697677598
470,144489,40669,100998,23.36468389927114,-5.7641842203106215
471,144502,40665,100993,18.92256481622708,-10.647223674607083
472,144527,40674,101006,28.36933135651033,1.990502503704621
473,144549,40670,100992,23.82863427507687,-11.864745585109633
474,144575,40667,100999,20.591877530894067,-4.793771984441456
475,144582,40675,100995,28.468708078445673,-8.762781735635187
476,144602,40669,100995,22.62665876405267,-8.812629230831543
477,144630,40674,100993,27.44475173162461,-10.834194010526652
478,144640,40694,100999,46.93113769215428,-4.807411396797889
479,144666,40669,101004,21.94794599979099,0.43467696722334037
480,144695,40679,101006,31.28373663091886,2.322569592796361
481,144702,40708,101011,59.88019565357857,7.222824531346742
482,144722,40681,100996,33.039356862927974,-7.902264304310396
483,144749,40670,101004,21.75913759149361,0.26018807745140404
484,144762,40668,101006,19.527946123581135,2.366379557546205
485,144782,40667,101014,18.672274717253128,10.381381473682836
486,144805,40679,101000,30.947035503517544,-4.0270352857811265
487,144831,40674,101013,25.623086668221394,9.160865828679105
488,144848,40671,101028,22.776407273660322,24.203724994463645
489,144860,40682,100993,33.68495720823312,-10.772222595763035
490,144880,40669,100974,20.580704618130056,-29.692197000555222
491,144918,40672,100978,23.282887137281996,-25.653665528812365
492,144929,40674,100965,25.037584671089643,-38.48942050108902
493,144939,40662,100964,12.91108579842556,-39.354575708800105
494,144966,40674,100956,23.940409822036926,-47.05083998125309
495,144987,40673,100956,23.10982194538125,-46.66636214488176
496,145004,40670,100962,20.197781646475462,-40.50131565648853
497,145019,40666,100975,16.07858561680137,-27.55452552146809
498,145039,40667,100959,17.73137729549293,-43.37632684502694
499,145062,40662,100976,11.68975320740445,-26.239833544167336
500,145086,40678,100974,28.059393659961682,-27.71858809436183
501,145099,40679,100978,28.610529768712624,-23.809179665735346
502,145123,40676,100969,25.75396517926125,-32.92027847289338
503,145145,40688,100990,37.623975720041244,-11.856153255269412
504,145159,40682,100982,31.272325535921183,-19.813788620607536
505,145196,40669,100969,17.681656792127228,-32.3109497015024
506,145210,40673,100964,21.93229968743148,-37.15787346642225
507,145220,40662,100974,11.044101830492908,-27.122259164493467
508,145244,40669,100989,18.02502548918433,-12.335445325304587
509,145264,40677,100987,25.746199559938187,-14.377549503678921
510,145284,40684,100991,32.43399808209902,-10.035612952883218
511,145307,40687,100980,35.37598593435419,-20.743843385607363
512,145327,40692,100997,40.34106016065722,-4.010885976455803
513,145354,40677,100986,25.10127133513291,-15.055513192198912
514,145368,40674,100976,21.91523790904406,-24.75254125789202
515,145390,40687,100988,34.28542478115543,-12.478758158287476
516,145402,40680,100927,27.400332332775044,-73.28685492606672
517,145424,40668,100973,16.188659347596335,-27.25650130330126
518,145448,40671,100972,17.857380656597066,-27.840471622821955
519,145463,40676,100983,22.944568688983765,-16.887437157761493
520,145491,40672,100976,18.748959342001815,-24.21143615763319
521,145511,40680,100968,26.855133355972747,-31.90520652760369
522,145521,40678,100968,24.328321568567546,-31.512163762135188
523,145544,40667,100987,13.760309145780596,-12.171382427131082
524,145567,40665,100971,11.737578336410975,-28.67166648641793
525,145579,40682,100987,28.181557696437256,-12.491812474901897
526,145599,40672,100981,17.62802389091513,-18.348521706456058
527,145632,40672,100963,18.079468961120497,-36.08122302926464
528,145654,40667,100985,12.96651226709993,-13.86146226724468
529,145669,40667,100982,12.850038551808392,-16.85208748154258
530,145683,40675,100971,21.079017048337327,-28.082318235036386
531,145706,40673,100963,18.880865167344282,-35.73425110424315
532,145732,40669,100959,15.266969397295622,-39.469735149452895
533,145747,40682,100931,27.59841524478973,-66.7206501520693
534,145768,40664,100948,10.07790275297938,-50.01127980534571
535,145786,40670,100953,16.232308661246353,-45.086794319241214
536,145806,40658,100946,3.485622917050254,-51.36956460317796
537,145829,40660,100956,5.259481649360799,-41.200745739971914
538,145852,40634,100941,-20.94635212935996,-55.93774340124912
539,145862,40664,100966,8.921551799538323,-30.809125408402306
540,145885,40678,100935,23.24303065389855,-61.588411598951076
541,145903,40666,100945,11.144052219856002,-51.402467692444446
542,145936,40660,100923,5.36833833692659,-72.89489265815533
543,145946,40676,100941,21.096795524402236,-54.54580626895719
544,145968,40731,100956,75.74428961719127,-39.27193310098469
545,145987,40657,100935,1.7560897609714283,-60.02442519177719
546,146011,40653,100942,-1.9756495556075278,-53.05312735612236
547,146021,40662,100935,6.987884695689125,-59.769670197583736
548,146047,40669,100936,13.592450870483038,-58.158684908681295
549,146075,40662,100942,6.656595774247138,-52.10250363395753
550,146085,40670,100930,14.637373971152321,-63.88404573343923
551,146105,40665,100937,9.727533043329469,-56.705644890886575
552,146130,40655,100946,-0.4897442295270529,-47.29491666777467
553,146140,40663,100977,7.421546774250727,-16.14611546281156
554,146163,40676,100932,20.181505196068855,-60.90945603047615
555,146191,40665,100942,8.83096217580483,-50.505145359418194
556,146204,40661,100930,4.93817175836887,-62.28695707055032
557,146235,40661,100947,5.02313210029793,-45.22482814375455
558,146256,40660,100946,4.058931778995415,-46.02925378714877
559,146271,40652,100945,-3.990704124748763,-46.558944535239476
560,146283,40606,100932,-49.954410431944176,-59.06226339294208
561,146308,40656,100941,1.0997886625948112,-50.20799153844438
562,146322,40659,100937,3.9903064220492626,-54.067148552527904
563,146336,40666,100940,10.460338341281574,-50.62556539016257
564,146362,40660,100946,4.505390029323289,-44.351064352162815
565,146393,40655,100941,-1.1566739449902173,-48.74722210910627
566,146411,40667,100921,10.826947038822354,-68.39672946804392
567,146425,40671,100933,14.82706492024472,-56.45029431173798
568,146446,40660,100925,4.160808642244951,-64.58042355074684
569,146469,40649,100930,-6.570114117156525,-58.90583746017915
570,146490,40671,100928,15.116981511607861,-60.259444358180055
571,146504,40665,100895,8.920467747210395,-92.92417682207464
572,146537,40650,100933,-5.675418705198103,-55.18183344488633
573,146554,40665,100929,9.547169505827565,-58.85087842740641
574,146567,40587,100897,-68.25994150364936,-90.15292068801517
575,146589,40662,100897,6.551282718959801,-89.70741863406018
576,146601,40634,100904,-21.564180023472304,-82.36673887057621
577,146624,40656,100895,0.717086461056029,-90.94814817300654
578,146645,40657,100891,1.502292327018079,-94.26401470151309
579,146662,40652,100893,-3.6383584645685114,-91.94744390611807
580,146682,40631,100896,-24.661335063901788,-88.69020681786381
581,146705,40658,100902,2.3426532824556627,-82.19030832104951
582,146734,40659,100893,3.2243118431013076,-90.38759605372215
583,146747,40655,100871,-0.01889144201767534,-111.81056248255763
584,146774,40654,100887,-0.3408936007183754,-95.92176256960792
585,146789,40650,100881,-4.130729702546461,-100.7858579030972
586,146818,40657,100894,1.3145317144740791,-87.66430453091898
587,146824,40656,100917,0.4706125904231131,-64.49269469986655
588,146844,40639,100902,-16.27798912069627,-78.96823209095874
589,146868,40656,100886,0.7539725567739608,-94.37656940948622
590,146886,40670,100895,14.661339698944392,-84.89514931893224
591,146910,40654,100891,-1.2108564946677296,-88.73748846880416
592,146924,40661,100884,5.810219546123408,-95.3747909737827
593,146947,40658,100884,2.285069456908779,-94.49448663296617
594,146966,40664,100892,8.003470192917154,-85.92246636869554
595,146986,40661,100890,5.079870135397886,-87.68401211189261
596,147006,40654,100885,-1.808513656232186,-92.42272162592239
597,147033,40647,100884,-7.9487246700458645,-93.10819111504564
598,147046,40653,100920,-2.6708387145057655,-56.50488282629463
599,147072,40651,100888,-5.041222984497717,-87.96877431644823
600,147087,40635,100891,-20.471301887307014,-84.71097058189326
601,147109,40655,100896,-0.1377191813905978,-79.65202657040567
602,147134,40661,100899,5.6257692587901875,-76.22620691635103
603,147154,40653,100902,-2.541265832753225,-72.50831606319396
604,147169,40661,100882,4.944905780592359,-91.93544813032538
605,147184,40664,100891,8.294115875289954,-82.68672865334658
606,147209,40659,100899,3.4303356604700217,-74.62231978394466
607,147224,40668,100899,12.188285965498679,-74.30864297963733
608,147246,40673,100892,17.394197176177563,-80.87361466596867
609,147266,40656,100896,0.1700854943881911,-76.22447157586704
610,147297,40652,100906,-3.2682264717698413,-65.98741184886518
611,147314,40650,100900,-5.364690334438438,-71.91009115939704
612,147327,40651,100892,-5.033041724482598,-79.34973984067013
613,147353,40654,100875,-2.8486512467747147,-95.35739732627628
614,147366,40657,100891,1.0038935531947302,-79.4997691238258
615,147381,40658,100876,2.2520050581463837,-94.15182436776806
616,147407,40639,100836,-16.55138950493407,-133.06774847815535
617,147422,40656,100850,0.43597876607553276,-118.43261106107776
618,147442,40643,100857,-12.700113164693441,-111.41536797588007
619,147472,40653,100842,-2.7175645762203913,-125.80172659329294
620,147485,40668,100840,12.58964798771419,-127.04713865204508
621,147511,40649,100838,-6.630710528454516,-128.11510752963844
622,147523,40680,100825,24.432673339524523,-140.5086925777859
623,147545,40644,100821,-11.534726358594188,-143.99763746853571
624,147560,40652,100818,-3.822822389955001,-146.3479435571086
625,147580,40650,100822,-6.004252944314686,-141.73366862355238
626,147612,40642,100847,-13.641488734967206,-115.89596213282884
627,147625,40640,100823,-16.295444739293703,-138.90895093367584
628,147652,40648,100822,-7.476922614360238,-139.29830054110556
629,147666,40646,100822,-9.569845079771016,-138.95757895463515
630,147684,40648,100818,-8.018992149338803,-142.50552524403795
631,147704,40641,100846,-15.12719210035498,-113.60277889865917
632,147737,40645,100820,-10.85332708947751,-138.5127157355135
633,147754,40661,100814,5.12277063566575,-143.91611395831924
634,147766,40640,100813,-15.581785389541663,-144.54012514266853
635,147782,40636,100818,-18.972255227851644,-139.05914971582686
636,147808,40646,100800,-9.938997954366885,-155.96052900853564
637,147824,40635,100815,-20.745760346831446,-139.95558604161243
638,147847,40648,100816,-7.163619557061363,-138.31192533840235
639,147879,40636,100800,-18.95442463022052,-153.79430971260044
640,147899,40634,100796,-21.432065555569558,-156.91763056118776
641,147917,40632,100845,-23.43558645971839,-107.35332359840497
642,147930,40574,100781,-80.50220511000755,-170.60713492790836
643,147944,40641,100795,-13.191025185466593,-155.8556758533047
644,147970,40640,100807,-13.875108906853088,-142.96531926676704
645,147985,40633,100791,-20.866687878220013,-158.12568200411863
646,148007,40641,100802,-13.162834808441197,-146.6969159726789
647,148035,40628,100793,-26.742912623870275,-154.83151587752172
648,148047,40649,100779,-6.02535725904203,-167.9152739502027
649,148067,40642,100846,-12.97953520017949,-100.3109768458801
650,148095,40629,100771,-25.796962688634885,-174.62059513226598
651,148109,40672,100768,16.99498792109733,-176.82488418923435
652,148140,40630,100759,-23.349960386977024,-184.88089383861558
653,148145,40644,100755,-9.19485047181009,-187.9044602809344
654,148165,40638,100785,-15.129988696623363,-156.84365059752355
655,148194,40621,100752,-31.846056846297387,-188.84565387796144
656,148206,40630,100736,-22.793701955029334,-203.98720143426684
657,148231,40634,100740,-19.666060707417365,-199.28586671921616
658,148244,40639,100756,-15.03895746231581,-182.1629542470939
659,148273,40663,100745,8.999116361764065,-192.2964221218572
660,148289,40647,100760,-6.668137263350259,-176.53790383780228
661,148310,40647,100752,-6.893426398249513,-183.5310368598159
662,148340,40682,100753,28.000142321607758,-181.70988698715564
663,148344,40647,100768,-6.952928867075235,-165.90252208061813
664,148364,40642,100806,-11.920646386238385,-127.12352279152077
665,148391,40645,100789,-8.693713097638051,-143.26622158351142
666,148404,40649,100767,-5.243679190402556,-164.21604833628078
667,148438,40650,100784,-3.1796390991914754,-146.7366175711472
668,148450,40651,100796,-2.37929776993376,-134.2422433428221
669,148464,40649,100797,-4.779029065799822,-132.72434824492836
670,148484,40659,100801,5.234227542573828,-128.0987849780476
671,148509,40656,100815,1.580618438242237,-113.23139435359666
672,148527,40667,100810,12.37128316740195,-117.54554145884558
673,148542,40662,100825,7.263296269562937,-102.24758776651638
674,148571,40675,100845,20.18479774502938,-82.07861528725996
675,148592,40675,100833,19.868395744942294,-93.35878260028034
676,148611,40668,100831,12.651444979578237,-94.71344569052418
677,148636,40679,100836,24.18897086652362,-89.40882909184138
678,148650,40685,100833,30.43715515754954,-91.97369701998862
679,148671,40681,100848,25.96910032938963,-76.49529007022565
680,148684,40678,100852,22.715620406641257,-72.09629580058218
681,148713,40692,100832,37.03526574212426,-91.92099496444713
682,148726,40691,100859,35.42799431903857,-64.45029480086251
683,148752,40665,100865,9.285078741454367,-57.98110302719568
684,148767,40686,100843,30.06917848445867,-79.5897430172986
685,148787,40684,100863,27.605246622586137,-59.30239188721554
686,148808,40682,100852,25.210986913907416,-70.42915779990739
687,148832,40694,100850,36.7396601524478,-72.04854397056108
688,148847,40691,100854,33.11517166009926,-67.38001057265565
689,148875,40688,100855,30.206621029504273,-65.97812306883615
690,148891,40672,100842,15.032815941255294,-78.84964291535347
691,148911,40694,100835,36.48865762512079,-85.21622928262347
692,148928,40692,100825,34.29994651969523,-94.69336564607325
693,148948,40700,100818,42.379592049757434,-101.26056703592505
694,148961,40681,100813,23.21742916741987,-105.78556621303164
695,148987,40708,100811,50.04208248071461,-107.32532863422435
696,149015,40688,100800,30.590633631108908,-117.70429893403958
697,149025,40683,100781,25.095482351236896,-135.77160926400336
698,149047,40688,100790,29.798729386125565,-126.40677290586065
699,149064,40687,100793,28.568063066656684,-122.86170861505104
700,149084,40681,100777,22.29607942293033,-138.02581310376547
701,149111,40689,100777,29.93835435181636,-137.09819375048818
702,149123,40686,100782,26.841807303814548,-131.48252344733277
703,149151,40692,100783,32.36493172459025,-130.5015093864921
704,149165,40687,100787,27.172250019803954,-125.71759382932552
705,149201,40694,100774,32.6936672264802,-137.4796326851592
706,149219,40690,100792,29.105350198165578,-119.4451822549849
707,149238,40707,100793,45.69707828171857,-117.777221806166
708,149248,40691,100775,29.46043869422777,-134.9930698589891
709,149271,40683,100779,21.69307564087631,-130.30988904861024
710,149292,40688,100803,26.71071550827948,-105.84755060157582
711,149315,40697,100763,35.73667362839734,-144.92523122258868
712,149327,40692,100737,30.297515173883227,-169.94564423372643
713,149346,40686,100788,23.847009886725566,-118.43493745625527
714,149366,40696,100781,33.82572238009462,-124.91086878171333
715,149386,40698,100785,35.83095460419713,-120.3866543993519
716,149418,40709,100793,47.248844827621966,-111.77400310022291
717,149430,40713,100781,50.939403465164055,-123.08927990410292
718,149453,40696,100799,34.45260200696458,-104.84087648935841
719,149465,40671,100782,9.078945867324858,-121.18083399164524
720,149487,40697,100788,34.40677266569497,-114.44596408993894
721,149507,40691,100800,28.169078591160453,-102.03316952350544
722,149537,40710,100802,46.74266077378523,-99.56097405907957
723,149551,40708,100818,44.465276771133865,-83.04396904058424
724,149575,40708,100813,44.38981193557623,-87.59726814953417
725,149588,40706,100790,42.33513424561058,-110.14480000292112
726,149620,40714,100796,50.121626389097116,-103.78557880336243
727,149633,40720,100801,55.91843229512323,-98.31509152369028
728,149647,40712,100802,47.485868589213325,-96.72800039812246
729,149669,40726,100783,60.56942582784636,-115.17945127797067
730,149686,40723,100807,57.00544366409734,-90.80412053577739
731,149706,40713,100788,47.06829129579752,-109.45589865776053
732,149734,40723,100796,56.89022811384153,-100.77341920702742
733,149747,40740,100791,73.75913099464226,-105.21559859493217
734,149773,40721,100799,54.5114338431593,-96.34807715480314
735,149790,40723,100768,56.04974943116616,-127.08253175789169
736,149807,40730,100789,62.98200833661677,-105.89474084375833
737,149826,40721,100788,53.758832783205435,-106.14032873217577
738,149856,40724,100801,56.58108747485063,-92.31491757760959
739,149879,40727,100790,59.29506209166652,-102.97919598665456
740,149892,40730,100805,61.366635836251874,-87.67308876369492
741,149905,40729,100785,60.40930722845197,-107.0943890246011
742,149935,40739,100805,70.28340705666331,-86.41125149354835
743,149948,40737,100811,68.03960500458359,-80.21477903130898
744,149969,40745,100803,75.52680138362764,-87.90842189396395
745,149993,40758,100800,88.01453388818219,-90.31736466079857
746,150015,40735,100818,64.45068665001521,-72.05447277962381
747,150035,40753,100809,81.80201163613577,-80.76238226671745
748,150049,40739,100814,67.3499328674343,-75.43621082137108
749,150075,40750,100819,78.27821244395629,-69.89509376118724
750,150095,40776,100820,103.61546249536536,-68.43711691371207
751,150112,40758,100812,85.51096364362715,-76.31933135838503
752,150123,40749,100830,76.40819748201969,-58.025666498985395
753,150153,40742,100834,68.7706927278188,-53.44354832574102
754,150166,40752,100827,77.88649496096303,-60.21242028927122
755,150187,40754,100816,79.43342529025944,-71.20645420265085
756,150215,40747,100808,72.28264021951107,-78.62259241491995
757,150231,40760,100827,84.79750161920806,-59.19191346122407
758,150248,40758,100831,82.39223261353358,-55.15693392623175
759,150269,40764,100824,87.89630063350789,-61.9941948794569
760,150289,40769,100826,92.2538452162727,-59.39874378764339
761,150308,40751,100831,73.66049934390165,-54.08271689509919
762,150332,40762,100850,84.65796174785147,-35.0230941957869
763,150348,40775,100839,96.80123735643058,-45.760966786708956
764,150373,40766,100837,87.57518537871013,-47.92006308042802
765,150394,40767,100820,87.51723208925904,-64.15016087674124
766,150407,40764,100809,83.5698215849436,-74.71792029697309
767,150428,40765,100819,85.35507028689139,-64.71446261547817
768,150455,40787,100812,106.70362629179364,-71.4052276698826
769,150467,40774,100829,93.19908440716583,-54.10865094267505
770,150494,40774,100810,92.93504253989909,-72.61365467389678
771,150514,40771,100809,89.18233354303028,-73.32466409850228
772,150529,40791,100805,108.50112199501001,-77.05060965903489
773,150549,40770,100807,87.47067902604284,-74.65266730958447
774,150569,40773,100779,89.82730338773932,-101.89997350653346
775,150592,40768,100773,84.24296638493844,-107.3740108623501
776,150612,40767,100769,82.74938093924386,-111.15939839909373
777,150626,40764,100788,79.17755099684958,-91.79887219722502
778,150657,40786,100780,100.50142879444219,-98.92438468637039
779,150667,40748,100786,62.048107185787714,-92.33700871839997
780,150694,40760,100781,73.59971252972713,-96.98408522751525
781,150714,40794,100781,107.2051965112778,-96.60772457616785
782,150732,40779,100782,91.87189076862613,-95.22867465839387
783,150752,40779,100791,91.08057298563946,-85.77391674628265
784,150766,40776,100785,87.72560175737127,-91.32365402565878
785,150799,40791,100784,102.74026957273828,-91.8412032381617
786,150813,40799,100773,110.18554286827509,-102.32603628642633
787,150830,40786,100782,96.68887599449401,-93.09716875937865
788,150845,40783,100787,92.97033653119686,-87.61361253340519
789,150865,40783,100801,92.10016662194194,-73.08521372937037
790,150891,40787,100765,95.91935513890644,-108.57223018831938
791,150905,40786,100780,94.5874458789041,-93.0861668305153
792,150932,40799,100799,107.38638656902117,-73.59402004922647
793,150946,40790,100777,97.49438063488704,-95.09515098271982
794,150973,40793,100783,99.98793175884181,-88.92039112895749
795,150991,40788,100791,94.19898363811065,-80.69036208591325
796,151006,40790,100792,95.82652391789591,-79.30806759202454
797,151026,40787,100791,92.60523199512272,-79.88961349207017
798,151046,40781,100806,86.41636334936399,-64.54811801716932
799,151079,40797,100794,101.47395742768845,-75.98745295877183
800,151089,40795,100822,98.9283324888913,-47.838265701860635
801,151120,40802,100793,105.46155748010257,-76.45273308099961
802,151140,40796,100821,98.70221140474783,-48.0728813245992
803,151161,40796,100802,98.37285327395308,-66.65491216911195
804,151175,40803,100798,104.4602484140719,-70.65454783916076
805,151189,40824,100799,124.9604807530336,-69.4658260079148
806,151209,40803,100801,103.65399204948848,-66.89865611432731
807,151222,40804,100798,104.20489161669224,-69.38984344628973
808,151242,40803,100796,102.46921524759523,-71.03664359437661
809,151271,40810,100790,109.40172315119248,-76.8062444226504
810,151296,40796,100791,94.07721478641503,-75.353832247666
811,151315,40795,100781,92.63982216961695,-84.98405930988102
812,151335,40809,100798,106.23811525055324,-67.71484722557425
813,151363,40806,100793,102.91507409127082,-72.15815571364831
814,151378,40814,100804,110.55313335395586,-61.06081687639087
815,151394,40805,100789,101.3400036536478,-75.78791163542529
816,151410,40813,100789,108.63597504595961,-75.27805946042254
817,151438,40811,100771,105.88402840790802,-92.72485115701384
818,151458,40804,100769,98.5187121516581,-94.54025171386324
819,151476,40812,100753,105.88008295964704,-110.03910804499091
820,151496,40812,100688,104.74320167887204,-173.751866328004
821,151509,40815,100752,106.97528551069057,-109.16670541514624
822,151533,40805,100744,97.00504298660422,-116.8233641149823
823,151547,40804,100750,95.48128443541898,-110.45664245907736
824,151574,40810,100738,100.85299234541503,-121.76155262788417
825,151588,40811,100747,101.27566913798105,-112.0839427838297
826,151619,40817,100746,106.73815320693932,-112.5530689711393
827,151635,40820,100747,109.24817420645715,-111.06398154524085
828,151655,40796,100759,85.00893850537392,-98.61011328142996
829,151673,40801,100747,89.58528695796102,-110.03152851211891
830,151686,40813,100753,100.85969923339677,-103.46808060737712
831,151714,40818,100746,105.48232243495431,-109.76761458150446
832,151728,40831,100728,117.82917078977765,-127.26076844145686
833,151753,40823,100735,109.39388501416559,-119.89940401130957
834,151769,40819,100744,104.7976832395696,-110.287013380973
835,151789,40823,100747,108.11108492544282,-106.61946907191788
836,151813,40836,100743,119.88412135712534,-109.99619448556133
837,151839,40825,100745,108.03538301700678,-107.68580119790458
838,151853,40811,100753,93.41927148082937,-99.25720087523756
839,151867,40838,100757,119.70063001495734,-94.60562612045244
840,151888,40828,100765,109.0963545255324,-85.91465467407293
841,151913,40838,100775,119.31858983869877,-75.892444267792
842,151926,40838,100763,119.08992338812672,-87.63389345392365
843,151946,40827,100760,106.49333088895136,-89.71587593852082
844,151972,40840,100765,119.4211367506562,-84.16309389686272
845,151986,40842,100769,120.95540110678527,-80.19401035648285
846,152013,40844,100761,122.32874128589465,-87.95743671157949
847,152026,40843,100767,120.70501726050861,-81.36228707453292
848,152048,40833,100759,110.57057520559682,-88.87357947151854
849,152083,40845,100777,121.70761737011563,-70.39831121062578
850,152088,40836,100770,112.07256192284372,-76.99916951449991
851,152108,40869,100783,144.25548031776876,-63.950410867829355
852,152135,40835,100783,109.64647890149732,-63.92906316370289
853,152149,40844,100783,117.1613036768563,-63.021033916238956
854,152176,40857,100775,129.2924896231844,-70.72955486792857
855,152200,40849,100788,120.85799560179535,-58.0074425997992
856,152222,40858,100794,129.23708588102664,-51.89121312704704
857,152242,40858,100792,127.94416268367311,-53.01003919469127
858,152258,40851,100786,120.20888766058616,-58.611530429974785
859,152272,40761,100782,31.016985357474404,-62.64196229912432
860,152299,40847,100773,116.84717013614504,-71.51547116298065
861,152313,40844,100764,112.63470007481055,-79.71471067537612
862,152327,40852,100774,119.9688606959868,-69.24995718026959
863,152354,40842,100765,109.85243348778346,-78.00344447616246
864,152374,40859,100745,126.40351730036801,-97.6161246584473
865,152403,40863,100758,130.13671495863738,-84.18298906057677
866,152419,40857,100749,123.29741681334481,-92.70652131757407
867,152433,40908,100754,172.60825950299426,-86.97172050877644
868,152447,40845,100729,109.23179439053969,-111.51284449852461
869,152476,40869,100735,132.2141708338473,-105.44656345526492
870,152503,40850,100750,112.30702396195413,-89.6552505671773
871,152524,40840,100746,101.95612721266171,-93.22627439515077
872,152544,40853,100728,114.78271167791353,-111.10072580709091
873,152554,40854,100742,114.95428671551807,-96.68605405031852
874,152568,40869,100742,129.18089990361958,-95.94083589886155
875,152594,40835,100746,94.95644844853936,-90.86861059218474
876,152614,40856,100725,115.9502630647535,-111.5741480933837
877,152634,40854,100698,113.7274909752374,-138.2814781073988
878,152648,40867,100730,126.1092515403259,-105.81880815944402
879,152668,40855,100747,112.99488913977773,-87.91423242128863
880,152688,40869,100746,126.64961589752363,-88.54387814592644
881,152717,40861,100726,117.91281305200677,-108.20820661731449
882,152732,40859,100736,115.22465910141658,-97.85280572922038
883,152747,40867,100745,122.5299219519105,-88.17607634616105
884,152769,40871,100748,125.75629405065116,-84.74031661132014
885,152789,40882,100762,136.08382645653154,-70.62005245431881
886,152819,40860,100755,113.40997214110901,-77.1513117138986
887,152839,40871,100744,123.65311530878654,-87.46945277733803
888,152853,40882,100759,133.88537673951274,-72.09571522445599
889,152881,40869,100756,120.91882792288631,-75.05195954381821
890,152891,40863,100761,114.32492905584037,-69.83722876518426
891,152907,40890,100761,140.70788402203405,-69.51196849850062
892,152941,40887,100763,136.02062524604716,-66.6919629728639
893,152963,40888,100750,137.0233298730341,-79.64339443588476
894,152976,40888,100758,136.24000645455263,-71.3834276341804
895,152993,40909,100765,156.52065991788683,-63.87720743964008
896,153014,40878,100756,124.85632409059993,-72.4373468169793
897,153034,40882,100764,128.01253065846697,-64.15857463729914
898,153059,40885,100767,129.99381846333478,-61.147269146614505
899,153076,40880,100760,124.11768979574447,-67.78542955666401
900,153102,40884,100763,127.7277077805564,-64.31086906540918
901,153112,40875,100754,118.23810539188325,-72.90819542890682
902,153132,40892,100796,134.76859011238608,-30.812707916277056
903,153152,40877,100732,119.37756521866733,-94.39794897715946
904,153170,40867,100749,108.6140475774972,-76.85467023746033
905,153197,40882,100741,122.68725507652212,-84.35736077719899
906,153207,40883,100717,123.05763326304601,-107.93296045125375
907,153243,40882,100720,121.64370677805138,-104.50113152358273
908,153265,40874,100719,113.04238167631185,-104.96939189108329
909,153285,40873,100722,111.6358792531923,-101.39013697164648
910,153304,40893,100718,130.89712673457058,-105.27297596101342
911,153315,40887,100708,124.30721695022508,-114.74982175994533
912,153342,40894,100712,130.34588234415605,-109.7164332769413
913,153353,40883,100710,118.73102660693567,-110.96909342302754
914,153379,40883,100727,118.27349136280456,-93.91984187392129
915,153398,40880,100713,114.49581242515875,-107.38122201062984
916,153415,40882,100704,115.74959934327178,-115.76136302472608
917,153435,40862,100719,95.29829844327095,-100.18123393388204
918,153455,40891,100703,123.70450292625468,-115.52357802869005
919,153466,40882,100708,113.91751313105144,-110.03208130217934
920,153497,40900,100713,131.4153848992799,-104.83846932330037
921,153522,40898,100680,128.4583244849446,-136.7566221399704
922,153546,40902,100685,131.8502961284155,-131.03492752390858
923,153552,40895,100713,124.33014623774642,-102.6025537419351
924,153572,40891,100733,120.23160055395762,-82.53452631914143
925,153589,40887,100705,115.63846788782588,-109.92382400826067
926,153609,40900,100712,127.7030548179739,-102.11156918471826
927,153628,40894,100713,120.8980382704002,-100.88721049119012
928,153655,40896,100726,122.52782986790238,-87.64712984237792
929,153672,40898,100718,123.61243075142815,-94.8586225187822
930,153692,40900,100708,124.97690226443481,-104.38190959312583
931,153724,40899,100726,123.37411996993504,-86.05983154445022
932,153744,40897,100717,120.75407137075798,-94.64153512805034
933,153761,40894,100721,117.37001541534228,-90.07015931726369
934,153771,40909,100716,131.8918153461106,-94.6385623555991
935,153797,40898,100739,120.32782270682796,-71.19636911131849
936,153823,40901,100728,122.04103281194121,-81.81642137601914
937,153846,40907,100745,127.20519386191715,-64.63133005780708
938,153849,40909,100733,128.51444251606992,-76.2717313137789
939,153869,40932,100662,150.76617587476,-146.51786293224893
940,153889,40909,100721,127.19538624762949,-87.02233923778307
941,153918,40902,100733,119.58565081492357,-74.60579570090552
942,153943,40902,100740,119.1426198132425,-67.28550568132343
943,153953,40911,100704,127.51251277389119,-102.8979364214381
944,153979,40915,100735,131.19165118219993,-71.5064740659947
945,154004,40926,100731,141.29262323462927,-75.0306278363695
946,154017,40919,100732,133.5051680733034,-73.76013779774439
947,154040,40900,100727,113.97120482541668,-78.33807499954801
948,154060,40917,100722,130.38653663050067,-82.84508242649353
949,154070,40916,100717,128.71833399038263,-87.34269770459625
950,154103,40915,100702,127.04334610676972,-102.15491754759347
951,154113,40954,100702,165.07041407991667,-101.67859638679725
952,154128,40925,100708,135.09799157585482,-95.06561501851351
953,154148,40910,100685,119.50315230661892,-117.34738818957541
954,154168,40924,100665,133.187646382712,-136.6217699497062
955,154203,40901,100693,109.75481583845558,-108.30611284995122
956,154217,40905,100686,112.95470452004459,-114.69155275421394
957,154245,40911,100699,118.10399207038414,-101.08665971959023
958,154262,40906,100653,112.75560194707947,-146.36440123690392
959,154286,40924,100698,130.3087119365725,-100.86482408954994
960,154302,40920,100704,125.43903794510975,-94.45615777561831
961,154319,40927,100693,131.76929376566727,-104.95956632913418
962,154334,40920,100696,123.917493151384,-101.51699309235802
963,154349,40917,100706,120.25523910444385,-91.0052410064883
964,154377,40922,100690,124.85059196058587,-106.4027909254291
965,154389,40916,100703,117.9921331570505,-92.90464427895513
966,154409,40926,100691,127.41079479070102,-104.4225867755773
967,154445,40927,100675,127.63844504501874,-120.10304427219644
968,154449,40919,100695,118.96793571725371,-99.64544751188447
969,154469,40923,100734,122.52419423871848,-60.08163279612919
970,154489,40945,100695,144.02305847812534,-98.27588819113589
971,154520,40918,100690,116.41536813426136,-103.16164875768071
972,154531,40939,100700,136.85452745409177,-92.9139236567521
973,154559,40929,100702,126.3215336027194,-90.26616174118985
974,154569,40939,100700,135.3232396946538,-91.64054602876803
975,154591,40934,100710,129.81218425938337,-81.28218897390171
976,154618,40922,100697,117.24781795292861,-93.94197053643673
977,154638,40917,100708,111.65868653162246,-82.62543373401012
978,154661,40931,100721,124.95294110999342,-69.20421233976478
979,154671,40931,100694,124.24203554735698,-95.5982163634782
980,154691,40943,100712,134.99035848858884,-77.10448075918319
981,154717,40940,100726,131.55088609537282,-63.10903816660334
982,154734,40928,100712,118.9452378566402,-76.82189255357335
983,154762,40936,100721,126.70224311515273,-67.32590398540127
984,154778,40937,100724,127.14819413605117,-63.92456979015668
985,154798,40907,100705,96.212899750202,-82.4837093535803
986,154815,40930,100717,119.08350096573393,-70.23341571176496
987,154835,40934,100712,121.93131277528998,-75.00607526551221
988,154852,40927,100717,114.25742692257603,-69.57111577507492
989,154872,40937,100715,124.45314956088552,-71.12185884977391
990,154898,40950,100699,136.1831422013126,-86.70263068757998
991,154910,40937,100699,122.42642380964818,-86.27349297695484
992,154930,40943,100688,127.77863757119675,-96.76989048699377
993,154950,40945,100689,129.12416568166324,-95.27367647621091
994,154974,40932,100705,116.25639538960387,-79.1504542859336
995,155000,40945,100674,128.7835126152165,-109.35537206302064
996,155010,40922,100658,105.24716695259723,-124.61171861143455
997,155044,40942,100682,124.64119888347277,-100.19879093341773
998,155064,40936,100671,117.89974375562296,-110.80216977845568
999,155084,40938,100675,119.15133337965861,-106.4282873400296
1000,155100,40940,100669,120.54187297949511,-111.91563130884406
1001,155114,40940,100656,119.55921321684106,-124.14233537735787
1002,155142,40941,100677,119.03370729838284,-102.40640260578235
1003,155152,40938,100674,115.71434932463653,-104.92112481288822
1004,155179,40959,100679,136.69139191333747,-99.31253927844188
1005,155198,40937,100677,113.90134910595465,-101.06769336762663
1006,155219,40945,100677,121.0474632328762,-100.41426460026543
1007,155239,40945,100691,120.21057034874921,-85.78575578502026
1008,155245,40946,100688,120.51953286308091,-88.28753523831827
1009,155265,40957,100665,130.8273921217438,-110.72200608946285
1010,155304,40952,100664,125.96546983054344,-111.68712976708846
1011,155314,40961,100677,134.2353940610814,-98.15165410615062
1012,155338,40931,100663,103.66278182509593,-111.53031224638667
1013,155365,40938,100661,110.2183048010993,-112.94672897130603
1014,155385,40945,100673,116.74063461329672,-100.43363755456058
1015,155405,40959,100660,129.59115800546806,-112.86096162333905
1016,155421,40947,100660,116.76621431669447,-112.4338919238908
1017,155432,40956,100655,125.4708622045315,-116.91933937233352
1018,155460,40942,100663,110.7852528366654,-108.31755546715554
1019,155470,40957,100653,124.81635511016572,-117.40525975505975
1020,155498,40946,100663,114.33454003749537,-107.1028496917743
1021,155521,40951,100654,118.49964840108957,-115.606152071039
1022,155541,40943,100658,109.49133208196048,-111.07985748281558
1023,155567,40949,100652,115.02352391117014,-116.49449681340532
1024,155580,40948,100667,113.28383080655635,-100.9227849174372
1025,155591,40965,100655,129.07101731419047,-112.09775451676404
1026,155611,40940,100646,104.07728859665761,-120.59233389322291
1027,155644,40944,100649,107.9582090649445,-117.37203850508831
1028,155661,40933,100624,96.57897279199523,-141.5849703297849
1029,155676,40946,100658,108.83800762229008,-106.89398941794961
1030,155691,40936,100668,98.20655136628906,-96.50759496637325
1031,155714,40950,100645,110.89858996649004,-118.8000329644602
1032,155737,40958,100636,117.56320022039935,-126.63159082548425
1033,155750,40943,100638,101.56589165808802,-124.00209041705047
1034,155779,40929,100618,88.6121249537071,-144.00680564599182
1035,155804,40944,100627,104.16401277032388,-134.2369594804389
1036,155811,40937,100615,96.92165214817445,-145.44256579188627
1037,155831,40937,100601,96.31926519071328,-158.65831576842766
1038,155851,40929,100596,87.66593417523801,-162.87630189437004
1039,155885,40918,100596,73.85472819513102,-162.14267715366353
1040,155895,40941,100600,96.15832556109848,-157.37189007279028
1041,155923,40943,100613,97.68582022763073,-143.59264675904168
1042,155934,40950,100600,104.28437448678059,-155.79500318418224
1043,155954,40939,100627,93.33578492224639,-128.18527819114365
1044,155974,40951,100620,105.82777081172333,-134.62731962096552
1045,156007,40931,100604,85.71522544466256,-149.711213100332
1046,156018,40945,100620,99.40204600759687,-133.02811124863152
1047,156032,40956,100618,110.1954565499717,-134.40522795576803
1048,156056,40950,100612,102.99893381417968,-139.44063724644494
1049,156084,40964,100610,117.09907806728742,-141.67460709458356
1050,156101,40954,100632,106.79872163798855,-118.73969951340779
1051,156121,40947,100643,99.42549872153351,-106.44217504326403
1052,156135,40960,100658,111.91325525220059,-90.5793588270857
1053,156155,40962,100669,113.23647111304277,-79.26003056470029
1054,156177,40946,100670,95.38277787982419,-77.84457186097742
1055,156195,40956,100667,103.77246545700933,-81.47363242761938
1056,156222,40963,100669,110.034265567926,-79.8622085494307
1057,156232,40977,100687,123.70848639288005,-61.66635239624808
1058,156251,40982,100698,128.92153753664567,-50.09281186055638
1059,156277,40986,100703,131.24479792224074,-44.57097887430074
1060,156297,40974,100731,117.46329422445119,-16.301623939593544
1061,156323,40986,100723,127.70697711886801,-24.10092114382448
1062,156340,40996,100727,138.1805895694483,-20.500844098818483
1063,156351,40984,100734,125.68898093123212,-13.31113146889595
1064,156374,40985,100743,127.07813343985966,-3.608944219052205
1065,156397,40989,100726,131.24529959180725,-20.14416580255249
1066,156411,40993,100733,134.7072336060171,-13.235955967087087
1067,156428,40977,100741,118.38159037117121,-5.450554548511317
1068,156448,40974,100756,115.16688316686259,9.223984576231771
1069,156481,40986,100730,125.81813500443413,-15.80332442308891
1070,156492,40987,100727,126.45604173901398,-18.694051470251893
1071,156513,40979,100728,118.48059587691263,-18.50645448306274
1072,156526,40981,100716,119.95644413838937,-30.750174078780105
1073,156546,40987,100726,124.78434499443766,-20.53609693699423
1074,156566,40985,100705,121.18043696811336,-40.82025031842348
1075,156592,40992,100693,127.02553078437427,-52.3845339305384
1076,156613,40989,100699,123.38401970200466,-46.71858802664359
1077,156634,40986,100688,120.24104105305236,-57.750595351999465
1078,156655,40968,100688,101.38597199294873,-56.92118007188497
1079,156682,40987,100677,119.44121841425282,-67.44828812730086
1080,156698,40979,100674,110.78053688980012,-70.21947961591117
1081,156721,40976,100674,107.5452102078273,-69.78813998765473
1082,156741,40976,100660,107.30657035745688,-83.2788989045604
1083,156770,40982,100670,113.66854469797383,-73.16811480640393
1084,156783,40964,100659,95.36939778415378,-84.01245378844715
1085,156794,40974,100667,104.67796324988903,-75.66596297726142
1086,156823,40977,100670,107.38413458231878,-71.83844593020811
1087,156845,40973,100671,102.48385008328505,-70.73849790549647
1088,156853,40981,100663,109.75384426644762,-78.46153827471852
1089,156873,40977,100687,104.90826104709943,-54.11903286062421
1090,156893,40986,100672,113.06460970764309,-68.55294254498322
1091,156917,40983,100672,109.5868370935525,-68.3140910663446
1092,156938,40967,100676,92.79756905079542,-63.755600097026715
1093,156959,40975,100673,99.77276746849104,-66.08534937354355
1094,156972,40995,100661,118.64053598547473,-77.86358158828438
1095,157004,40986,100675,108.91056623117451,-63.818937285652
1096,157018,40982,100664,104.45787770238135,-74.48921144041631
1097,157034,40977,100675,98.99538470017742,-63.21185818710513
1098,157051,40967,100682,89.69704661695812,-55.78449684104754
1099,157085,40983,100634,105.7877635376165,-103.78875846751541
1100,157103,40975,100685,97.6852651289998,-52.84760639948452
1101,157114,41014,100675,136.46374063426225,-62.60132737678093
1102,157148,40982,100670,103.38438527073674,-66.5807035102553
1103,157168,40986,100670,106.86888251191765,-66.16058893408496
1104,157183,40997,100684,117.15199888240822,-51.881961587943536
1105,157203,40989,100741,107.69444760332858,4.872834244060326
1106,157213,40995,100690,112.95573639282874,-46.05319308702384
1107,157234,40979,100693,96.60148914642691,-42.7106653559248
1108,157257,40992,100684,108.63082790221014,-51.1744992258825
1109,157278,40994,100690,110.45771531061969,-45.05877296005064
1110,157298,40993,100675,108.97308598898871,-59.81027975383911
1111,157319,40963,100661,78.61917207909488,-73.50762309586287
1112,157339,40982,100656,97.1540382910479,-78.18609615896447
1113,157356,40987,100666,101.9136880174829,-67.99953839860265
1114,157378,40992,100649,105.91071375137199,-84.46687021779746
1115,157400,40995,100631,109.21423469794777,-101.93935276645537
1116,157422,40975,100643,88.54210582051773,-89.3459994459627
1117,157432,40994,100610,106.93770920105953,-121.78148705915554
1118,157466,40980,100641,92.62885242465073,-90.6842759997765
1119,157489,40986,100632,97.9610885183463,-99.09015562859136
1120,157509,40985,100606,96.10203844779448,-124.11020116110213
1121,157524,40984,100620,94.67664006392307,-109.77355258846909
1122,157534,40968,100621,78.31793696481151,-108.36059075078545
1123,157552,40987,100627,96.46606688649072,-102.0770147282011
1124,157591,40987,100622,95.41749790014046,-106.08289454445581
1125,157592,40983,100621,90.91426558094818,-106.53667102341814
1126,157612,40981,100601,88.74122059109828,-125.85736098923404
1127,157639,40996,100621,103.60317646132444,-105.75839007838601
1128,157653,40978,100628,85.29154952771357,-98.31870736342256
1129,157673,40987,100618,94.09582616408116,-107.58023324156179
1130,157693,40991,100634,97.12266743033796,-91.05562356390995
1131,157716,40979,100630,84.76992867881188,-94.47410213638703
1132,157741,40993,100624,98.7331586792436,-100.00520160416507
1133,157761,40973,100614,78.52513878071838,-109.72631084768176
1134,157785,40985,100620,89.65573393280219,-102.97060142809167
1135,157806,41001,100630,104.78656681684944,-92.50651706444899
1136,157815,40984,100627,87.19318752067913,-95.04671115472037
1137,157835,40966,100644,68.35908127460384,-77.61609855112633
1138,157856,40979,100632,81.26562970945017,-89.28085818825683
1139,157880,40985,100629,86.90961736195182,-92.00190520869181
1140,157907,40988,100647,89.72558984726989,-73.62088329212911
1141,157929,40996,100651,96.99647505517628,-69.25385901849559
1142,157949,40990,100643,89.85341342962944,-76.84385374712136
1143,157962,40994,100640,93.85761528204216,-79.56937601754433
1144,157991,40982,100656,81.32190102858402,-63.18287587923203
1145,158001,40992,100627,90.82544395073405,-91.72934427349985
1146,158028,40964,100674,63.410137947296846,-44.56382734106905
1147,158049,40942,100649,40.93295530108905,-69.06258996970737
1148,158066,40988,100647,87.11772947613589,-70.49107194649098
1149,158077,40983,100660,81.92861942587808,-57.22700044551232
1150,158097,40978,100623,76.06481356887187,-94.0537220900848
1151,158117,40993,100622,90.127998796107,-94.87776407133988
1152,158139,40981,100623,77.38909966304782,-93.100453560128
1153,158160,40990,100606,85.6534426738782,-109.3548885953121
1154,158172,41002,100605,97.13253162602636,-109.87026756429272
1155,158209,40993,100580,87.98411336158553,-134.70302726871984
1156,158233,40982,100616,76.58718447659686,-98.07213252827768
1157,158253,40979,100610,73.11441311787908,-103.21577704190388
1158,158265,40987,100612,80.83145290167084,-100.85502739059433
1159,158276,40986,100570,79.91266632592948,-142.18638134564395
1160,158298,40983,100614,75.741692544376,-97.61982729054616
1161,158320,41003,100615,95.46824034078942,-96.0477316951657
1162,158330,40987,100602,79.25723717642225,-108.61882480792136
1163,158369,40999,100619,90.73063526931,-91.30792489393161
1164,158384,41002,100611,93.1239183465082,-98.76736184511996
1165,158404,41005,100618,95.4230882052154,-91.14584817034378
1166,158417,41002,100611,92.13916850536587,-97.74960739793546
1167,158437,41005,100608,94.87848065123094,-100.47926623917377
1168,158461,40997,100615,86.22233841892154,-93.05023454977625
1169,158474,40996,100618,85.03611857566955,-89.58244506971806
1170,158503,40997,100623,85.03234530645418,-83.79413017157529
1171,158521,40977,100620,64.76486082080422,-86.27557875859426
1172,158544,40993,100619,80.59776553475211,-87.2128001109756
1173,158562,40986,100625,72.8511260080956,-80.92007926117599
1174,158591,40997,100631,83.68876023987549,-74.33053004236201
1175,158601,40995,100610,81.38721131575367,-94.77840847217018
1176,158621,40991,100626,76.82913498153194,-78.0997959835775
1177,158633,40990,100630,75.76516295658712,-74.02371051411542
1178,158654,40998,100621,83.6343013697043,-82.86876998562299
1179,158674,40994,100628,79.18928662945514,-75.43847296750272
1180,158700,41012,100627,96.35757387667553,-75.7367071837657
1181,158721,40990,100638,73.50804372931404,-64.53366827110987
1182,158741,41019,100629,102.75737556756673,-73.43747690899839
1183,158762,41008,100628,90.9538470563805,-73.91298073388596
1184,158782,40984,100634,66.30286294182058,-67.44856220586716
1185,158810,40992,100611,74.47466326250532,-90.1424277910032
1186,158816,41001,100606,83.18069416511942,-94.71182266683572
1187,158836,41016,100594,97.56018794850107,-106.10340448896123
1188,158856,40997,100589,77.72421398541043,-110.36159532710063
1189,158881,40995,100582,76.04323342524613,-116.71440744133594
1190,158901,40987,100580,67.35200652647217,-118.44430232928563
1191,158921,40989,100561,69.68389509239744,-137.01924906476327
1192,158949,40985,100545,64.83186199688664,-151.99362839896895
1193,158960,40981,100565,60.29826061260133,-131.30543109524817
1194,158980,40986,100583,64.82492731895022,-112.89534739844798
1195,159000,40989,100537,67.338312570705,-158.2580562378456
1196,159020,40987,100548,65.1854693201864,-146.62771842454788
1197,159040,41001,100556,78.71750045998593,-137.633921882126
1198,159060,40987,100535,64.47036045798153,-157.69256793934485
1199,159080,40985,100546,62.15479618509677,-145.86018462556905
1200,159108,40984,100537,61.44084591625317,-154.25512987513625
1201,159128,40998,100534,75.09020438075757,-156.53836349351675
1202,159148,40997,100511,73.7465200516932,-178.7104888507658
1203,159162,40984,100526,60.237490981829026,-162.82891827041445
1204,159182,40982,100530,57.374772717279754,-157.7049954711693
1205,159202,40969,100504,44.38043633663581,-183.08677157048493
1206,159222,40974,100506,49.4169750257509,-180.16221856720728
1207,159246,40988,100499,62.35914890341322,-186.23614203891273
1208,159266,40976,100510,50.75255399689391,-174.64698282036503
1209,159289,40980,100526,54.34583198953431,-157.72088500408023
1210,159309,40977,100519,50.77470287783394,-163.69077995355087
1211,159316,40978,100524,51.39406136212507,-157.82951670483473
1212,159336,40986,100495,59.48048462777008,-186.06669050200264
1213,159357,40971,100499,44.12647629640673,-181.40329924903713
1214,159384,40971,100507,44.134406869419855,-172.43082052126437
1215,159403,40964,100493,36.933833664743815,-185.35619201668857
1216,159423,40980,100496,52.616346017916925,-181.29908823102141
1217,159448,40983,100497,56.44838711212097,-179.7357234704373
1218,159458,40972,100497,44.9895574680082,-178.79517907593777
1219,159478,40979,100487,50.87754433118994,-187.7620995622926
1220,159500,40975,100508,46.63890206904864,-166.0103883970019
1221,159520,40974,100494,44.62897895405515,-178.8418893084655
1222,159547,40970,100503,40.58409339487116,-169.00259997738326
1223,159567,40979,100499,49.669966810966,-172.24587532689023
1224,159594,40970,100498,40.53629185371485,-172.39240997906495
1225,159614,40977,100488,47.14838661323993,-181.42487980721697
1226,159629,40971,100482,40.97399289114382,-186.75242329741533
1227,159639,40986,100425,55.6359957474682,-242.53787200854072
1228,159659,40992,100469,62.234212695412246,-197.4578453930558
1229,159679,40972,100450,41.837855620746964,-215.0231390746125
1230,159696,40982,100443,51.06543319593192,-221.11074102973802
1231,159729,40971,100444,39.85815138137993,-218.98677880814495
1232,159749,40976,100428,44.65868995023167,-233.78140434539043
1233,159768,40979,100418,47.463532753554816,-242.36335212056383
1234,159779,40968,100433,36.76497203436583,-226.30495918582295
1235,159799,40963,100433,31.249037034120946,-225.61344299053638
1236,159819,40975,100440,42.698467288718085,-217.5433372805981
1237,159847,40977,100434,44.802227566639196,-222.50961070966673
1238,159858,40973,100430,40.6276128425293,-225.34132211850428
1239,159878,40977,100426,44.447934603138144,-228.0710139808294
1240,159898,40967,100442,34.31943941988422,-210.88639701814157
1241,159917,40968,100424,35.432539359591274,-227.8749864336625
1242,159938,40984,100426,50.8633072774858,-224.99290433957333
1243,159958,40967,100434,33.728232597645786,-215.63429956461678
1244,159978,40968,100423,34.39486833250948,-225.31144892664656
1245,160007,40979,100425,45.254495948975524,-222.35478625968975
1246,160027,40975,100419,40.89829827414841,-227.27348146162367
1247,160047,40975,100436,40.53208578431776,-209.2790707540325
1248,160062,40979,100427,44.20177617149325,-217.06414907141468
1249,160083,40995,100421,59.83642067434255,-222.0535993460441
1250,160103,40963,100414,27.750080323679907,-227.8795148719607
1251,160123,40990,100408,54.97824651183873,-232.49977171235224
1252,160147,40975,100408,39.79781122170548,-231.57264369455288
1253,160161,40968,100416,32.64004032224901,-222.59172088842632
1254,160181,41010,100423,74.1562157524118,-214.22281034322603
1255,160201,40979,100420,42.829316498907076,-215.84424854984252
1256,160221,40977,100415,39.819265960079065,-220.1463344760059
1257,160243,40986,100420,50.5943179929704,-214.08599782711698
1258,160264,40994,100422,56.82814979232056,-210.50674906427804
1259,160289,40986,100466,48.40592801024827,-165.80445588905096
1260,160309,40989,100458,51.50569829673258,-173.4372384137964
1261,160330,40984,100447,46.628064395237985,-183.65831797664967
1262,160350,40990,100436,52.66158463711671,-193.0875658636073
1263,160364,40997,100447,59.311574296107366,-181.16389043390524
1264,160375,41002,100454,63.50134949239659,-173.63152500484892
1265,160398,40991,100434,52.040024980146136,-193.43928814350477
1266,160420,40988,100467,49.43173917082857,-159.38073825375335
1267,160450,40976,100468,36.505864123453314,-157.13278025042382
1268,160470,41032,100451,92.1622304469517,-173.47871988913056
1269,160494,41002,100450,61.96107141152757,-173.63444586098197
1270,160514,40995,100443,54.75046388057473,-179.5929889097705
1271,160530,41003,100437,62.05790315797373,-184.5537353935776
1272,160541,41000,100397,58.69572105613355,-223.21632139662614
1273,160563,40986,100424,44.417145728610436,-195.06563830696962
1274,160592,40993,100403,51.41825725672222,-215.54103777115546
1275,160606,40980,100429,38.189620549306056,-188.66648476139193
1276,160626,40995,100392,53.02390481153957,-224.42256770219467
1277,160646,40995,100407,52.85958328538604,-208.2592520013034
1278,160669,40988,100417,44.78462864056783,-197.36548866904437
1279,160681,41002,100408,58.95420354439705,-205.38064691378293
1280,160702,41008,100387,64.81575422350105,-225.1655467782488
1281,160724,41005,100394,61.555488883397864,-217.17132836814335
1282,160754,41009,100402,65.58790253434773,-208.26418853566648
1283,160765,41005,100398,61.307563994107625,-211.23203657539037
1284,160785,40991,100406,46.99297292521296,-202.23352938844437
1285,160805,41002,100396,57.62461543190713,-211.19006184043695
1286,160823,40990,100401,45.04399400849596,-205.07938494444082
1287,160837,41004,100403,58.7378051450313,-201.94794588502555
1288,160861,41001,100397,54.8988144355356,-206.81865502855882
1289,160882,40993,100411,47.2969892895708,-191.98655985452012
1290,160900,41002,100405,55.746327322862754,-196.88353966664562
1291,160920,41002,100401,55.00087158463579,-199.73530808213633
1292,160939,41006,100415,59.06593210522746,-185.01141455493428
1293,160959,41000,100407,53.67746767614366,-192.47248247097087
1294,160982,41023,100410,76.14572479386825,-188.45900128860634
1295,161003,41010,100406,62.73895033258444,-191.11157320716612
1296,161024,41006,100411,57.72595182174437,-185.13305443464057
1297,161043,40995,100409,46.71497376711194,-186.5035116441972
1298,161063,41020,100410,71.54014299592376,-184.56356201835374
1299,161094,41014,100409,65.49729574555741,-184.49699240734373
1300,161112,41002,100403,53.122968334908734,-189.52463375576295
1301,161132,40965,100401,15.63958352301575,-190.63550406183842
1302,161148,41050,100412,100.41592863683753,-178.6927081823011
1303,161159,41004,100411,54.012161251968,-178.7182489808665
1304,161180,41006,100411,55.05279636184739,-178.07627490913168
1305,161211,41007,100430,55.23082793345815,-158.171483809234
1306,161219,41007,100428,54.8124075379223,-159.33908603415546
1307,161239,40980,100429,28.286265920756108,-157.3987853818329
1308,161259,41025,100438,73.70222969617006,-147.49706982834573
1309,161282,41004,100434,52.94963401895936,-150.7500828602462
1310,161303,41019,100428,66.53466071127579,-156.34300614475262
1311,161331,41026,100432,72.79766064384499,-151.59823946203846
1312,161339,41045,100423,91.05786084538417,-159.7598749831398
1313,161359,41036,100431,81.00824827819206,-150.9759228617667
1314,161378,41022,100435,67.3049455693534,-146.34086104854407
1315,161398,41022,100435,67.79167349845642,-145.72961558859026
1316,161424,41034,100420,79.16668969710527,-159.78020226401637
1317,161445,41019,100412,64.79861684955893,-167.22624233260007
1318,161457,41013,100423,58.7180958427426,-155.25609240422756
1319,161479,41028,100404,71.91746954687551,-173.08489753253693
1320,161499,41032,100412,75.72075667750332,-164.3023630478536
1321,161519,41025,100408,68.68286359750546,-167.53199028377242
1322,161553,41021,100418,64.19348627724773,-157.52031030189954
1323,161566,41017,100424,59.54633065867126,-150.8167889889857
1324,161577,41023,100436,65.28072499414202,-137.84819780102157
1325,161598,41040,100434,80.70849397254125,-138.24743639592364
1326,161627,41047,100417,88.55069750012221,-155.41411388206438
1327,161647,41025,100399,65.37879206291966,-172.28794807596438
1328,161664,41025,100438,64.4937057703784,-132.399633405765
1329,161684,41034,100434,73.20076100065923,-135.71651698649566
1330,161704,41029,100446,67.93475624357447,-123.09677567016446
1331,161719,41024,100424,63.05918357937372,-144.58792822568466
1332,161742,41023,100430,61.59481325706658,-137.84202242264584
1333,161763,41036,100431,74.60703585437666,-135.9588867516355
1334,161779,41033,100434,71.54366935955062,-132.22607141754324
1335,161799,41051,100445,88.58897407123987,-120.58569669733318
1336,161824,41033,100436,70.35662954837379,-129.20427873185372
1337,161844,41045,100426,82.32219176492414,-138.84108598634384
1338,161861,41031,100443,67.31032478735115,-120.85621885388349
1339,161884,41039,100436,76.29609174740753,-127.25578873730231
1340,161906,41024,100422,60.56076318112687,-140.49841800901729
1341,161917,41020,100427,55.83696429052056,-134.8881833878243
1342,161943,41043,100440,78.3981087982477,-121.30896414769282
1343,161971,41029,100425,64.34139925749318,-135.71050909216567
1344,161991,41044,100437,79.23015757172105,-123.18400618443093
1345,162007,41047,100425,82.03490509039737,-134.70882826608178
1346,162018,41032,100430,66.05465355811945,-128.95445962528032
1347,162040,41035,100425,67.62873764623957,-132.5704631935786
1348,162062,41036,100434,69.17179213278212,-123.18851085620676
1349,162082,41027,100442,59.59941327601574,-114.98798260136324
1350,162102,41051,100445,83.05948570530512,-111.34196834770583
1351,162122,41045,100455,76.55172910898932,-100.74871428970485
1352,162141,41051,100470,81.59833850126817,-85.28235706133059
1353,162167,41051,100453,82.5214132491732,-101.90171365765458
1354,162178,41045,100463,76.13448758572078,-91.411946409473
1355,162201,41043,100470,73.07826710487468,-83.75437827238466
1356,162223,41047,100459,77.056671082581,-94.77015409915383
1357,162236,41041,100421,69.9505876410365,-132.06414664136037
1358,162256,41057,100425,85.29522007801638,-127.17692940009768
1359,162295,41048,100418,76.00559756814997,-133.60579143023736
1360,162315,41056,100431,83.72771207468548,-120.17661678441308
1361,162330,41054,100413,81.85364405461837,-137.40586471120872
1362,162341,41076,100402,103.26126763131046,-147.49880400081332
1363,162363,41052,100437,78.80554690621801,-112.07729592478617
1364,162381,41044,100418,70.00725442441315,-130.3441446005409
1365,162414,41057,100439,82.56617212269401,-108.79645238690318
1366,162432,41043,100420,68.31795452297536,-127.19646768393714
1367,162452,41053,100428,78.15225897212392,-118.68362297453315
1368,162465,41060,100435,83.94041886098992,-111.37529684089091
1369,162487,41051,100437,74.51915391903646,-108.72264162845416
1370,162499,41035,100440,58.22381075480981,-104.97233051930041
1371,162521,41066,100437,89.37648707078237,-107.34779018358033
1372,162551,41054,100432,77.32892689724714,-112.25004851248484
1373,162562,41045,100432,68.02498762026775,-111.74225991517677
1374,162582,41068,100448,90.18014380371716,-95.07837370067172
1375,162602,41074,100449,95.30764964070366,-93.42183541766998
1376,162624,41055,100449,76.06609687485091,-92.83885162727393
1377,162646,41066,100440,87.38988530764821,-101.52296788664837
1378,162668,41072,100454,92.80535871700549,-87.24397563337389
1379,162679,41058,100395,78.6690679199839,-145.52582023117665
1380,162698,41076,100457,95.78011785149542,-83.0294546050852
1381,162718,41009,100444,28.422424205125502,-95.52703484618704
1382,162738,41079,100449,97.75165395752379,-90.05923527435972
1383,162775,41071,100459,89.4100912101998,-79.41850109753479
1384,162787,41065,100456,82.63305168750499,-82.04729082928378
1385,162798,41113,100461,130.16089588996263,-76.87012874195115
1386,162835,41055,100462,71.27662548350501,-75.57451393321143
1387,162839,41067,100470,82.77956735364513,-67.23107564159768
1388,162859,41089,100460,104.38406232126455,-76.92677356680383
1389,162879,41065,100477,80.11127552383788,-59.70936309744145
1390,162908,41083,100469,97.79765022733311,-67.57978635635783
1391,162920,41081,100481,95.65923473042453,-55.352863732672006
1392,162942,41067,100488,80.2088123727749,-47.57576367589912
1393,162964,41069,100475,81.1860463636963,-60.12234390174905
1394,162989,41087,100471,99.80968727067082,-64.0625966152892
1395,163009,41082,100459,94.4066488513928,-75.67132171855333
1396,163032,41081,100460,93.17995188185478,-74.36509325582924
1397,163052,41068,100454,80.07400833696671,-80.06816645029093
1398,163064,41071,100437,82.58874555832479,-96.62776116730859
1399,163086,41055,100436,66.23056895575644,-96.86522600678684
1400,163109,41063,100424,73.97585385937798,-108.3694623576889
1401,163120,41066,100439,76.36240453321156,-93.08631581364826
1402,163155,41070,100421,79.87077778649056,-110.62961683289068
1403,163176,41067,100423,76.45156335225374,-108.0187243886473
1404,163196,41070,100429,79.00079887026284,-101.45085241563356
1405,163216,41077,100408,85.51709966637067,-121.78049008140742
1406,163230,41070,100407,77.76680472641084,-122.30073385361146
1407,163242,41000,100410,7.498245138641421,-118.70219218802941
1408,163265,41077,100415,84.523459300043,-113.11694274622829
1409,163287,41077,100429,84.3538518227431,-98.70766753214014
1410,163301,41109,100419,115.72099869278465,-108.17195870300198
1411,163321,41086,100421,92.0986604547952,-105.52462962069855
1412,163341,41084,100430,89.48871743962259,-95.92491306893824
1413,163369,41095,100415,100.14041103556806,-110.43739141569371
1414,163381,41094,100433,98.4136881617308,-91.96922479560264
1415,163403,41092,100425,96.50561365792625,-99.54040438118079
1416,163430,41097,100429,100.4352060458682,-94.87174162476308
1417,163449,41088,100424,91.38563444687043,-99.21849369615657
1418,163467,41086,100423,88.77986039969849,-99.88347453368027
1419,163493,41095,100427,97.39519142899177,-95.88040242743847
1420,163518,41091,100435,92.81240119704317,-87.40229956781968
1421,163534,41096,100460,96.61990897731611,-61.56894516380053
1422,163546,41104,100434,103.80923011300567,-87.10213995299067
1423,163560,41098,100445,98.24318553757612,-76.14593692104967
1424,163587,41094,100462,93.42862904032545,-59.154835154363774
1425,163605,41092,100453,90.81584541859075,-67.74243989570027
1426,163625,41102,100460,100.09928011860427,-60.31037889646088
1427,163645,41090,100465,87.4453241408268,-54.90479088279136
1428,163670,41106,100470,103.3996445150409,-49.99623660488566
1429,163682,41104,100452,101.09869983444311,-67.40316940272096
1430,163704,41091,100466,87.01985093309324,-53.085957709598595
1431,163727,41095,100474,91.17990894755312,-45.14425307904332
1432,163750,41116,100471,111.03133205215326,-47.7764324174811
1433,163766,41103,100493,97.196666296523,-25.591971418563194
1434,163786,41094,100460,87.80423219229606,-58.39894478003465
1435,163806,41106,100480,99.35410592315739,-38.30734203836981
1436,163822,41106,100470,99.10014810799062,-48.15987099783714
1437,163845,41106,100459,98.42706283435457,-58.42053644448534
1438,163868,41106,100444,98.13332233764675,-73.01319578659829
1439,163889,41145,100433,136.61497755309668,-83.98030188820087
1440,163903,41096,100439,87.32306005212713,-77.65334556385034
1441,163923,41108,100423,99.08643699533619,-93.15588956889346
1442,163943,41100,100414,90.8923797121066,-101.61572895276673
1443,163961,41099,100419,88.86743879627589,-95.92409943462198
1444,163985,41103,100421,92.00163478170853,-93.26883353026402
1445,164010,41100,100406,88.71201543509052,-108.26931496645935
1446,164022,41131,100407,118.89373697294334,-106.75393903968451
1447,164042,41101,100409,88.70162134459918,-104.09868057444571
1448,164061,41103,100415,90.19229332570916,-97.57529870896066
1449,164081,41092,100406,78.69448067520597,-106.0202588883595
1450,164101,41109,100411,95.11373526000939,-100.49284058330468
1451,164119,41119,100405,104.50900530310642,-106.22190825631087
1452,164146,41096,100422,81.24530320758693,-88.67646017791132
1453,164171,41107,100419,91.64728627523571,-90.81682971749825
1454,164184,41118,100453,102.275627282487,-56.63590709591123
1455,164213,41111,100428,94.88195952892148,-81.35017388740701
1456,164233,41108,100427,91.38629095446935,-81.96036582984196
1457,164253,41117,100422,99.84800500040224,-86.54757656125771
1458,164269,41117,100423,99.23929976102299,-85.08897841363174
1459,164281,41112,100448,93.64663737173112,-59.874191093881166
1460,164304,41117,100444,98.1662289790333,-63.60632410411543
1461,164327,41128,100428,108.53313545264777,-79.2092784724083
1462,164348,41133,100452,112.99115050385264,-54.91899843145474
1463,164364,41137,100434,116.4682237816925,-72.54669407715761
1464,164384,41122,100436,100.9430297265391,-70.19698366051794
1465,164404,41108,100439,86.49046164165716,-66.86399536061404
1466,164420,41122,100457,99.77711603079138,-48.67045290237764
1467,164444,41135,100457,112.73205366362814,-48.365821808580314
1468,164467,41128,100449,104.96710172378012,-56.111543803978705
1469,164480,41126,100447,102.49725509737037,-57.91340097640262
1470,164500,41113,100421,88.68718461201618,-83.29737886729556
1471,164537,41109,100447,84.19140213550635,-56.980951139485256
1472,164557,41134,100451,108.83875063443601,-52.8439684543408
1473,164573,41127,100452,101.40551328939807,-51.55382297425157
1474,164585,41130,100454,103.96288551289703,-49.387559620389595
1475,164612,41133,100453,106.49503786655629,-50.21387412502303
1476,164637,41141,100455,113.33796588867646,-47.822694310815784
1477,164654,41114,100468,85.97332527583696,-34.66298908759266
1478,164674,41126,100459,97.65766231092455,-43.477033052730356
1479,164694,41132,100456,103.31454313772713,-46.2771296313115
1480,164715,41133,100471,103.95430105821467,-31.284020833841133
1481,164727,41135,100455,104.97568820676503,-46.949118117301744
1482,164751,41134,100454,103.41311418288608,-47.739156004281774
1483,164763,41133,100452,102.15603403712402,-49.57017172108032
1484,164794,41127,100445,95.88986035263466,-56.04174566127513
1485,164817,41127,100437,95.41459664244498,-63.8588868418773
1486,164837,41126,100435,93.95573230183892,-65.67929489577503
1487,164841,41130,100416,97.43571243224909,-84.2724075672146
1488,164861,41145,100402,111.68238333218207,-97.72514482197928
1489,164888,41117,100403,83.37232972946333,-96.1270045839432
1490,164900,41132,100415,97.46951058369513,-83.98415736212296
1491,164923,41113,100407,78.41185338737817,-91.07906679040418
1492,164942,41134,100404,98.60108373808067,-93.73784877426378
1493,164969,41127,100414,90.80776861513472,-83.28093296535314
1494,164989,41128,100401,91.12213000322417,-95.71439008270464
1495,165018,41132,100400,95.2496975463422,-96.13297150291187
1496,165030,41126,100404,89.21718883526881,-91.75433030140115
1497,165042,41063,100407,25.91213055273109,-88.81388007284241
1498,165066,41135,100401,97.87345540108731,-94.23033176459788
1499,165099,41126,100411,88.0730677002916,-83.54330776015111
1500,165110,41151,100409,112.57161829945056,-85.14902169717148
1501,165130,41143,100400,104.13356550041325,-93.76601144293753
1502,165150,41141,100406,101.70820072234778,-87.41531779311444
1503,165170,41133,100422,92.72950024354705,-70.92621638223717
1504,165182,41120,100412,79.18758838002651,-80.47325014572603
1505,165206,41134,100424,92.6258115869114,-68.16802295274205
1506,165230,41144,100409,102.0810615070878,-83.15565195895061
1507,165252,41128,100430,85.6109865111508,-61.812401077201635
1508,165272,41149,100439,105.99667046578936,-52.48177927058835
1509,165292,41143,100446,99.41510692567685,-45.18743193727433
1510,165316,41142,100439,98.43316816741134,-51.90425338637678
1511,165328,41142,100433,98.32850529110078,-57.57857752602832
1512,165352,41134,100442,89.33589702500832,-48.33159641030611
1513,165365,41141,100408,96.14605878485378,-82.06940276282758
1514,165395,41143,100445,97.30191068965283,-44.5303201084042
1515,165419,41143,100446,96.76612105317548,-43.50560643749235
1516,165439,41151,100448,104.28516090012698,-41.50169893431681
1517,165452,41151,100461,103.82171602752304,-28.3575271645885
1518,165472,41148,100462,100.479658104565,-26.96597054922769
1519,165485,41145,100475,96.32833928832876,-13.696528337320563
1520,165509,41140,100483,90.88233805187437,-6.201715685251764
1521,165521,41151,100457,101.54723633556607,-32.267129152368476
1522,165542,41155,100484,105.26582389294616,-4.973219632607654
1523,165562,41140,100470,89.80895676978152,-18.824068043804726
1524,165595,41155,100468,104.10619373436403,-20.58736782153887
1525,165615,41162,100498,110.3645528873856,9.457783200777596
1526,165632,41162,100497,109.77949825583518,8.422520714021891
1527,165644,41160,100485,107.4679830126854,-3.5839543165636543
1528,165669,41159,100495,106.61563374490899,6.118253725528447
1529,165681,41154,100496,100.57003318744198,7.541294568564488
1530,165718,41165,100482,110.72296592626566,-6.603975825576897
1531,165721,41162,100472,107.17594303320153,-16.54615026492964
1532,165741,41172,100466,116.61955490544732,-22.627816671367064
1533,165778,41166,100462,110.00718747947008,-26.523606570901137
1534,165799,41157,100456,100.85339821481801,-32.540762193451386
1535,165814,41158,100469,100.71038379615342,-19.014326037921734
1536,165826,41149,100444,90.8989661595824,-43.68218358884868
1537,165842,41161,100457,102.72272203044042,-30.727048630590595
1538,165872,41160,100441,101.59908432991759,-46.75147839825796
1539,165892,41134,100464,75.00426516189614,-23.397973118551857
1540,165910,41159,100429,99.35680439572445,-58.09480456265867
1541,165928,41154,100437,94.34284918447254,-50.12505973102156
1542,165947,41150,100437,89.65443145503941,-49.824857372766886
1543,165972,41154,100431,93.14045466053953,-55.29084325214027
1544,165979,41155,100461,93.70096520693049,-25.197792110420703
1545,165999,41163,100419,101.07274873808143,-67.03811512377513
1546,166028,41167,100434,104.77247375811561,-51.844007303957525
1547,166048,41166,100441,103.57012670294907,-44.58926212843969
1548,166072,41170,100436,107.00074438854509,-49.485067734986536
1549,166085,41170,100469,106.47910921771447,-16.323278729139407
1550,166109,41146,100437,81.64946659877002,-47.89872934261311
1551,166131,41151,100434,85.91558156514924,-50.68478745720624
1552,166151,41161,100425,95.03377419054266,-59.37236142947751
1553,166162,41163,100452,96.31777609786255,-32.20610458303838
1554,166182,41166,100475,98.8839531345017,-9.179907140308845
1555,166202,41158,100459,90.54471116988239,-25.077680806644103
1556,166227,41166,100455,98.75485766612073,-29.14175243955026
1557,166251,41166,100459,98.08300693741943,-24.512959233460368
1558,166268,41168,100460,99.16233097895051,-23.327996186524384
1559,166292,41161,100454,91.82931541384043,-29.487819577567425
1560,166318,41166,100456,96.65550176080468,-27.351910657131793
1561,166338,41173,100465,103.39794239106672,-18.159329336439114
1562,166358,41172,100477,102.14805347644625,-6.027171200369215
1563,166370,41175,100476,105.04427057429017,-7.036523339564909
1564,166382,41172,100463,101.02940750995539,-20.053094584368502
1565,166407,41173,100486,100.65159518428604,2.56260668690587
1566,166439,41158,100485,85.32274432939803,1.8560752204223265
1567,166450,41185,100480,111.82041713666737,-3.1578060042391485
1568,166470,41167,100479,93.5267039710959,-4.22813893167916
1569,166490,41167,100461,93.23541955070596,-22.208539978238566
1570,166514,41181,100462,106.51552429413333,-20.768132960148762
1571,166527,41162,100472,86.67310363988747,-10.542182577464972
1572,166552,41168,100456,92.82079793621106,-26.812440089617944
1573,166564,41130,100460,54.60756744510775,-22.867351097312554
1574,166583,41159,100447,83.32052802139131,-35.476572578665866
1575,166616,41163,100434,86.7302026190974,-48.195042546614694
1576,166636,41171,100436,94.14069548758975,-45.95957201992822
1577,166643,41172,100442,94.63617375535561,-39.78373219798642
1578,166663,41161,100433,83.52805990283225,-48.957837064296754
1579,166688,41167,100457,88.85904642148482,-24.709238919418024
1580,166713,41173,100446,93.91130703465683,-35.152871939010886
1581,166725,41178,100429,98.35766775715537,-51.91548704805314
1582,166746,41169,100461,89.03870681428101,-20.020025364270907
1583,166762,41168,100450,87.66643268569752,-30.98914661954824
1584,166782,41158,100453,77.14660966797479,-27.758770494181505
1585,166807,41176,100459,94.88258327589914,-21.598154567014184
1586,166827,41173,100490,91.4528228455578,9.208824609135212
1587,166843,41177,100466,94.9496826735524,-14.740344127115597
1588,166868,41176,100464,93.14985102837564,-16.430116650888362
1589,166897,41180,100453,97.03257309909681,-27.57687920029932
1590,166905,41182,100484,98.51263122511955,3.3896462015522895
1591,166925,41165,100464,80.95000234798744,-16.49160273009045
1592,166945,41190,100476,105.26448294094129,-4.433225673120645
1593,166980,41180,100476,95.06692304159013,-4.330929132988123
1594,166993,41181,100489,95.51376655151502,8.645553509730483
1595,167008,41140,100470,53.99499079204878,-10.373280229756265
1596,167038,41183,100481,96.65659965537287,0.5421459176968857
1597,167058,41173,100502,85.90834516737323,21.50092730768663
1598,167078,41179,100476,91.41789278305983,-4.490206918014249
1599,167098,41176,100483,88.29383933385863,2.3852028448725404
1600,167112,41189,100495,100.66379975478985,14.439066410213535
1601,167125,41189,100497,100.10387958140456,16.411857223698227
1602,167150,41182,100490,92.67864270965725,9.072206808205308
1603,167163,41184,100497,94.49788045167143,15.939954869325556
1604,167196,41190,100483,99.49472296107858,2.249185570535349
1605,167213,41185,100485,93.74649397952726,4.2438186926642345
1606,167233,41171,100505,79.31463933023797,23.99094406879489
1607,167253,41187,100499,94.80486569052809,17.768710591919266
1608,167280,41181,100497,87.76895566958349,15.727629218269668
1609,167293,41188,100498,94.3631569296001,16.64298079587482
1610,167306,41267,100495,173.39681792533995,13.533892788413752
1611,167334,41190,100496,95.8159368935373,14.420900629116115
1612,167348,41175,100480,80.32796776007247,-1.67735572295362
1613,167368,41191,100457,95.81773668305996,-24.43710833150066
1614,167388,41180,100478,84.36499485135525,-3.3024338439548644
1615,167408,41176,100474,79.93445481874689,-7.147804395790436
1616,167427,41183,100452,86.72895389068027,-29.15056430626409
1617,167443,41170,100466,73.78413599997596,-15.233130747143623
1618,167470,41182,100451,85.10679621599427,-30.0714109011573
1619,167484,41170,100456,72.7968535230814,-24.81142786848452
1620,167517,41183,100457,84.88335699724794,-23.7501280757709
1621,167537,41189,100460,90.09674979404684,-20.699435286361833
1622,167549,41189,100472,89.43890991655013,-8.691128593415367
1623,167569,41186,100430,86.04459612869252,-50.65782236982815
1624,167583,41178,100479,77.62503786333683,-1.6903379715172597
1625,167616,41185,100459,84.10879473474428,-21.233777937905394
1626,167626,41191,100476,89.7699751001933,-4.271152011121904
1627,167646,41179,100484,77.49393895299383,3.675063017264477
1628,167666,41190,100480,88.16493792992688,-0.3585893803000786
1629,167700,41193,100469,91.00280050197632,-11.244249858046947
1630,167713,41181,100459,78.63839820467793,-21.25336375766072
1631,167726,41188,100467,85.14840183766138,-13.21395411506722
1632,167752,41190,100474,86.65221721894564,-6.055319353207763
1633,167765,41188,100476,84.6318582639496,-3.9785392211225314
1634,167786,41184,100487,79.94746558935533,6.8529512664008685
1635,167806,41184,100482,79.38776052302012,1.8258981665745477
1636,167837,41198,100471,92.7836248461999,-9.145511407600983
1637,167857,41191,100496,85.30823275949594,15.76388908758159
1638,167874,41190,100496,83.66624297000541,15.755751359852916
1639,167887,41175,100498,68.2420006277292,17.626675548988853
1640,167913,41196,100493,89.16585310232607,12.332964029262062
1641,167926,41186,100497,78.65862609160453,16.25561471354677
1642,167947,41195,100497,87.42004983097027,16.295370165016642
1643,167968,41196,100499,88.06203180227105,18.258992834301814
1644,167988,41183,100497,74.61837287471181,16.16726854582783
1645,168008,41185,100493,76.16666339156369,12.095990884972943
1646,168025,41190,100499,80.61061641421797,18.05943445644761
1647,168051,41201,100510,91.27565450622733,28.743203832506538
1648,168064,41206,100503,95.64767426157339,21.5215176994381
1649,168095,41194,100522,83.43495937470237,40.73205611520094
1650,168111,41182,100516,71.1885179181323,34.42854435500836
1651,168131,41206,100508,94.7287207022394,26.02503887879961
1652,168151,41198,100515,86.3113733078754,32.587232045712724
1653,168173,41182,100513,68.96868269439297,30.974706384011824
1654,168186,41194,100513,81.02631022557507,30.826221503576534
1655,168212,41192,100516,78.67879194841359,33.54271747948933
1656,168225,41188,100507,74.48255570687193,24.241041201222952
1657,168246,41205,100496,91.195440914195,13.284641286630727
1658,168271,41192,100493,77.4675228726384,10.242599379499241
1659,168291,41193,100481,77.76501281425456,-1.7548466424608469
1660,168311,41201,100492,85.0245424745225,9.192703952149344
1661,168329,41193,100460,76.85248471270135,-22.68968507335107
1662,168356,41189,100459,71.93455470611237,-23.59222319113689
1663,168369,41193,100447,75.73673575084463,-35.58591360913262
1664,168401,41189,100470,71.46148949008425,-12.47578946433996
1665,168419,41172,100483,53.87342674011011,0.6282065151029055
1666,168427,41227,100491,108.16301197393169,8.635037451957707
1667,168447,41197,100480,78.3524102454918,-2.166137819896403
1668,168466,41182,100490,63.36141754613213,7.448351936469037
1669,168487,41192,100488,73.09012276543011,5.3703487548908
1670,168513,41186,100501,66.44354608324763,18.311008130713375
1671,168527,41194,100495,74.12897125171519,12.428273724990971
1672,168551,41201,100486,80.83604413470488,3.225123506148938
1673,168571,41191,100499,70.56731168169732,15.945562171230883
1674,168587,41196,100496,74.8030340791688,12.933956929126154
1675,168607,41190,100501,67.84755434152937,17.975232254027105
1676,168624,41197,100516,74.60383501111026,32.51563852611793
1677,168650,41199,100510,75.49295724139911,26.474838602508772
1678,168676,41198,100490,74.90652159639014,6.79392161541399
1679,168685,41200,100544,76.53673895464442,60.335973623633066
1680,168705,41197,100498,72.82340547142987,13.945956151736848
1681,168743,41206,100504,81.17286874333509,20.092664745717027
1682,168763,41198,100499,72.70861161903763,15.226976864559683
1683,168777,41203,100514,77.5748571809857,29.690547387198617
1684,168790,41199,100394,73.74273417562645,-89.92835225196451
1685,168816,41197,100491,70.74471091642067,7.495840453136283
1686,168830,41194,100528,67.45322800180405,44.15321236020787
1687,168853,41189,100520,61.76414614785932,35.899863876464494
1688,168873,41204,100527,75.97636654113563,42.63316521358572
1689,168902,41209,100515,81.14853695983261,30.31638140952579
1690,168907,41201,100507,72.86871612689735,22.166558958980012
1691,168927,41171,100525,42.83276444650753,39.85279967879637
1692,168954,41186,100526,57.2889913592127,40.51547602325726
1693,168967,41197,100513,67.54331075166647,27.879903761708544
1694,168988,41197,100529,67.44416321504372,43.41971106184244
1695,169008,41194,100514,64.44610726948306,27.92585243543967
1696,169029,41196,100518,65.8763366807243,31.875553141707606
1697,169049,41183,100524,51.96889855701687,38.13320180451648
1698,169076,41188,100522,57.35042438797971,35.51944349488737
1699,169090,41172,100521,41.18537239678619,34.40532377173048
1700,169116,41185,100507,53.85275739326822,20.781249650563705
1701,169129,41156,100498,24.161320034943326,11.797906833674073
1702,169142,41196,100498,63.759774709974344,11.450647793847816
1703,169162,41195,100505,62.50347440365485,17.8257395058441
1704,169192,41180,100487,47.04373146524358,0.16668356066740952
1705,169212,41191,100485,57.48982323093908,-1.220096717114687
1706,169229,41180,100487,46.936644311003874,0.16273403785023355
1707,169257,41185,100476,51.16322764014408,-11.4335577939411
1708,169271,41147,100475,12.934190813059754,-11.972586655514748
1709,169298,41183,100478,48.62434723905679,-8.822514996491922
1710,169318,41192,100490,57.28602464786657,3.187308201210803
1711,169338,41182,100497,46.999267973419485,10.162258919205833
1712,169357,41185,100484,50.002689965419115,-3.454752088583434
1713,169371,41186,100500,50.452657383596645,12.361988344944587
1714,169397,41176,100497,39.706622396424386,10.063735162863582
1715,169410,41185,100483,48.78848354327419,-3.7485425762514697
1716,169437,41178,100501,42.114214388478054,13.830995493400593
1717,169457,41179,100491,42.253149941031914,3.6950498910561973
1718,169483,41189,100504,51.7477073792164,16.743794754667334
1719,169503,41181,100514,43.50147186462559,26.78989007184807
1720,169517,41180,100507,42.27924456253444,19.501246579701647
1721,169531,41175,100541,37.26395047051205,52.97977433163027
1722,169545,41205,100515,67.84043518853476,26.765483288772444
1723,169571,41189,100519,51.192121516171916,30.808567427125563
1724,169592,41185,100528,46.87038488473793,39.63445759249916
1725,169605,41198,100524,59.30520026302171,35.521179322108125
1726,169625,41175,100542,35.65866021314288,53.3734311869666
1727,169663,41195,100524,55.91004672811043,34.83653260549405
1728,169672,41179,100551,39.64822112155612,61.51284876857537
1729,169692,41198,100474,57.724056401985294,-15.186360627791778
1730,169706,41197,100543,56.547646903518974,53.54170185339859
1731,169723,41194,100542,53.17564282884081,52.404117148902095
1732,169743,41191,100547,50.27133846582028,57.03172743243331
1733,169763,41182,100541,41.41342561325531,50.69081743520497
1734,169802,41206,100554,64.98267159182274,63.57180769644926
1735,169816,41194,100539,52.97398466582926,48.2246450658513
1736,169830,41190,100538,48.4219998196597,47.014560502044446
1737,169857,41193,100545,50.880055448159474,53.611561276618744
1738,169871,41182,100571,40.07893299382831,79.23909801768782
1739,169885,41197,100561,54.424707884299956,68.95383190174304
1740,169913,41180,100528,37.080176746415,35.755567658523326
1741,169933,41193,100557,50.001569322615985,64.36307900392222
1742,169953,41193,100559,49.924342548983525,65.96225466045667
1743,169976,41196,100555,53.745056368605454,61.58981857866208
1744,169990,41186,100542,43.26516979920004,48.5158033954335
1745,170019,41188,100518,44.42611216863935,24.549906599289457
1746,170042,41171,100526,27.064712565938855,32.305158243133235
1747,170056,41181,100512,36.77468154533671,18.164563221319046
1748,170076,41177,100527,32.64878076454452,32.96514257730837
1749,170096,41189,100507,44.463818379396784,12.866595015286231
1750,170118,41181,100505,35.74216795856359,10.945995741984436
1751,170132,41165,100509,20.220132425211183,14.75067584265607
1752,170146,41179,100506,34.20700851642857,11.500761581446623
1753,170176,41166,100511,20.562105272391552,16.537874973230252
1754,170204,41167,100503,22.425728439502993,8.375566067286067
1755,170212,41178,100507,33.320945533543785,12.296187385600277
1756,170232,41147,100529,2.1626613441091176,34.13738103063824
1757,170252,41168,100525,22.89953042565786,29.999480803563635
1758,170275,41181,100536,35.375593994252135,40.70009112630266
1759,170292,41177,100527,31.39843767792372,31.474591571128208
1760,170307,41186,100515,40.16124883359004,19.434993505235
1761,170327,41187,100529,40.3475085118649,33.48354647452458
1762,170345,41191,100542,43.68925315121308,46.335034833770145
1763,170365,41175,100549,27.6784288029938,52.86815989091555
1764,170389,41180,100545,32.686417976298884,48.51938418537879
1765,170409,41183,100554,35.65098739934535,57.18026832580873
1766,170429,41181,100551,33.626570260523884,53.85763912090794
1767,170451,41174,100554,26.450974748654332,56.865721936911875
1768,170468,41181,100550,33.07793405113483,52.62643273207435
1769,170491,41187,100556,39.54992997085066,58.086056713346856
1770,170522,41184,100572,36.47659872187014,73.65363811936936
1771,170542,41182,100572,34.32997120542086,73.25424723868727
1772,170566,41184,100561,35.89997110898225,62.0723097117582
1773,170581,41281,100570,131.68256067581387,70.72380433468605
1774,170597,41179,100536,29.95049716241605,36.520406205019775
1775,170621,41185,100585,35.863174456331244,84.87470836711745
1776,170643,41201,100601,51.44381263103239,100.32879953876808
1777,170663,41185,100581,35.05413679778683,79.98440439092829
1778,170683,41203,100586,52.57545211875221,84.61706999816298
1779,170686,41184,100585,33.35593188091341,83.19931857020782
1780,170706,41182,100564,31.130614223765352,61.905645682893535
1781,170741,41172,100588,20.809820164243213,85.44947308296318
1782,170756,41174,100619,22.773917819306604,116.13761328725886
1783,170772,41176,100595,25.114072161979216,91.50149021574924
1784,170797,41190,100595,38.583902188066645,90.99645496249278
1785,170812,41187,100592,35.13321637186362,87.578166102653
1786,170832,41174,100595,21.829123738125475,90.17423339257186
1787,170852,41177,100602,24.510705042079223,96.73761113503345
1788,170867,41174,100590,22.186416177828256,84.27288278717693
1789,170890,41172,100604,21.086940200491906,97.46691990063967
1790,170919,41177,100583,25.14679923291188,76.292570408818
1791,170933,41177,100579,24.964497868887364,71.89900551663641
1792,170962,41170,100555,17.931557636814677,47.60707898660773
1793,170982,41166,100547,13.94707506502424,39.3806546424637
1794,170999,41174,100541,21.794304775434377,33.16216418822467
1795,171019,41164,100545,11.068251741123184,36.7747924437629
1796,171033,41165,100556,11.955523285559972,47.65582583575537
1797,171047,41161,100542,8.449380798788663,33.8965227358072
1798,171075,41169,100542,15.954457950965093,33.63441242602342
1799,171095,41167,100547,14.138663341203785,38.45995854495224
1800,171115,41154,100541,1.3883303627610895,32.354077592711064
1801,171133,41169,100535,16.23204110509338,26.077748168692455
1802,171153,41154,100540,1.0488690485834438,30.700097931836968
1803,171170,41157,100542,4.437920684450338,32.58546309242229
1804,171199,41148,100532,-4.831903582702024,22.5731578472267
1805,171213,41129,100548,-23.93033186452601,38.34915565756389
1806,171227,41163,100527,9.776054055719872,17.344041446339578
1807,171260,41161,100545,7.846115550783071,35.03893773315892
1808,171269,41146,100542,-7.092958649353525,31.830209978387618
1809,171289,41098,100544,-54.90790178516651,33.636254237874304
1810,171309,41146,100543,-6.964115869872141,32.4481911729347
1811,171330,41152,100546,-1.1945860542122801,35.38292649565193
1812,171358,41141,100536,-11.834869413367397,25.166527662073385
1813,171373,41151,100551,-1.804861656181596,40.047277726695455
1814,171394,41143,100544,-9.531883000705495,32.82189454870573
1815,171419,41147,100548,-5.531347749464505,36.59432615794698
1816,171444,41160,100545,7.39061028404848,33.343054294357174
1817,171455,41148,100554,-4.578848161519161,42.1451610747814
1818,171475,41146,100550,-6.500875572385622,38.01091252686692
1819,171495,41147,100558,-5.427967514838059,45.837665404555615
1820,171511,41164,100568,11.301720401337484,55.544847625231235
1821,171528,41153,100556,0.17772932722466894,43.39318491902432
1822,171548,41177,100557,23.921600057064953,44.086738016018444
1823,171576,41152,100574,-1.023026688920753,60.758452412381345
1824,171596,41160,100573,7.0271703972509325,59.462712788074
1825,171620,41152,100573,-1.4539682024905316,59.541761780809885
1826,171639,41136,100570,-17.03784823317781,55.867300763747686
1827,171653,41148,100596,-4.707814301816559,81.26555569494684
1828,171667,41145,100590,-8.032402627347675,74.93951705738849
1829,171691,41152,100598,-0.8526585810499228,82.76293409892315
1830,171711,41172,100595,19.05818803046592,79.31402222193016
1831,171743,41163,100620,9.812758850271475,103.55769537280574
1832,171759,41143,100611,-10.290552180669426,94.14834829037291
1833,171779,41160,100586,6.465770156856851,68.99350742337224
1834,171793,41154,100605,0.45761210981561895,87.6818526378051
1835,171821,41152,100612,-1.0492906566999194,93.89384653479847
1836,171835,41153,100586,-0.13750112888298816,67.53283142845166
1837,171856,41148,100607,-5.12365745386231,88.17271433668854
1838,171876,41162,100613,8.998412788145906,93.79349779854152
1839,171901,41159,100613,5.851366188068931,93.16332325813184
1840,171921,41156,100595,2.655474646998112,74.58578225364042
1841,171936,41131,100588,-21.981968907647605,67.08389896129248
1842,171950,41154,100596,0.8602007977125958,75.04341057530797
1843,171967,41145,100571,-8.674789365651893,50.11271209065064
1844,171987,41147,100574,-6.4029081486077795,52.48956223534905
1845,172008,41149,100579,-4.4621644701843595,57.204510693066986
1846,172028,41136,100574,-17.58086333057109,52.08986783894805
1847,172062,41146,100565,-6.920295505754608,42.385423097106774
1848,172079,41138,100565,-15.13154544842473,42.25835076227431
1849,172095,41151,100573,-2.2858351643349435,50.4848381601564
1850,172111,41138,100561,-15.178960943004832,38.07334387126387
1851,172129,41142,100583,-11.293355624008939,59.54270694975237
1852,172149,41140,100588,-13.248114507113488,64.2467733799139
1853,172169,41150,100566,-3.228622477747418,42.08859441363345
1854,172189,41141,100586,-12.164102212326977,61.831520362250586
1855,172221,41130,100586,-22.830128407027924,61.56227712938344
1856,172237,41123,100588,-29.795187801671055,63.14187197261373
1857,172254,41119,100576,-33.99955200167151,50.98629173694961
1858,172271,41129,100576,-23.993188415116336,50.64746243770648
1859,172296,41148,100571,-4.29623153615905,45.464016889356024
1860,172316,41161,100582,8.512971894159513,56.154858631679765
1861,172336,41131,100583,-21.527508842644117,56.8421564884187
1862,172356,41129,100588,-23.558425325735136,61.505928178984824
1863,172378,41137,100585,-15.863707340976838,58.38716755003435
1864,172393,41132,100591,-21.017810453236265,64.18996208374955
1865,172421,41127,100585,-25.804419058051295,57.24504904983525
1866,172443,41143,100622,-9.210709369560714,93.97243066298421
1867,172455,41131,100608,-20.94584269246198,79.58535227783757
1868,172475,41128,100606,-23.62677723392112,77.14966341144552
1869,172495,41147,100609,-4.403209109341489,79.70096249927734
1870,172518,41118,100612,-33.554218547093946,82.70528653678367
1871,172535,41134,100612,-17.22387440657102,82.50212294638597
1872,172550,41125,100612,-26.485385628643805,81.92679928057719
1873,172578,41143,100626,-7.882369635443366,95.09673954073894
1874,172597,41129,100639,-22.304603262598917,107.68182102236196
1875,172624,41143,100627,-8.091305239128367,95.09984352915967
1876,172636,41134,100621,-16.987855637506446,88.66477716471162
1877,172656,41128,100648,-22.934480368105433,115.19804212747803
1878,172680,41136,100630,-14.952400941079876,96.54533939996962
1879,172700,41142,100634,-8.98999738967239,99.87853634358704
1880,172721,41146,100627,-5.631864524850044,92.51632857925306
1881,172745,41145,100626,-6.472167135148805,91.0963543071133
1882,172754,41130,100607,-21.280331827571594,71.74916967580177
1883,172774,41114,100613,-36.88847531521919,77.42467881998415
1884,172794,41125,100611,-25.552443262127962,75.11217702206005
1885,172808,41135,100612,-15.49753752728784,75.68159193649697
1886,172828,41128,100616,-22.71898203267164,79.03790977194657
1887,172860,41132,100610,-18.397530956339352,72.6585735791771
1888,172882,41129,100620,-21.017762097548555,82.55654096006343
1889,172900,41121,100609,-29.048705472010894,71.20931054097994
1890,172920,41131,100614,-19.21218259345721,75.80604803555677
1891,172940,41123,100608,-27.336041353271362,69.4347310041574
1892,172962,41136,100613,-14.363449577031489,74.09970406719347
1893,172978,41149,100628,-1.5807013758465835,88.53618664176739
1894,172997,41123,100636,-27.25133599830055,95.90470680315906
1895,173013,41122,100630,-27.51874454215117,89.34090244141929
1896,173030,41130,100628,-19.327734331263922,86.88539032076781
1897,173053,41134,100622,-16.299248106507864,80.74578829433935
1898,173087,41121,100631,-28.83716153530042,89.08682559165531
1899,173092,41126,100624,-23.678569885713085,81.66945367629499
1900,173112,41107,100658,-42.34808252520718,115.22082548958124
1901,173130,41128,100623,-20.95994171020093,79.72045440037243
1902,173150,41132,100626,-16.502359409658567,82.1285728678603
1903,173179,41115,100643,-33.79957734832281,98.78241875845478
1904,173193,41124,100638,-24.699767935558526,93.34716157429408
1905,173213,41125,100626,-23.51165902030339,80.88516379369364
1906,173240,41135,100647,-13.424414489374787,101.39426370635502
1907,173252,41139,100639,-9.356425983502692,92.93762976604944
1908,173272,41130,100611,-18.006552765237053,64.668712791342
1909,173301,41124,100649,-25.089898706364202,101.8768366099593
1910,173316,41117,100632,-31.754718591687602,84.47697369865102
1911,173331,41130,100646,-18.56956793150829,98.30332334512418
1912,173364,41109,100639,-39.42357259499995,90.73562246553107
1913,173384,41116,100647,-32.30980197344957,98.13502956974607
1914,173402,41124,100648,-24.08919099248253,98.6063606565937
1915,173422,41124,100607,-23.602716731189123,57.395354278812285
1916,173438,41123,100647,-24.56769101795099,96.94710172168594
1917,173456,41116,100647,-31.09265893335464,96.29902804427606
1918,173472,41118,100641,-29.137284079196778,89.78688128582591
1919,173497,41131,100651,-16.082933059514623,99.33794145418294
1920,173521,41125,100649,-22.209603321611233,96.90239930278489
1921,173541,41125,100643,-22.36035236846982,90.4873737190947
1922,173557,41123,100637,-24.232663913619874,84.118899129013
1923,173577,41115,100624,-31.704371290309865,70.87177077909632
1924,173594,41116,100628,-30.42031080118227,74.19853074468449
1925,173616,41114,100610,-32.2061105386099,55.75491739860644
1926,173631,41108,100612,-38.19936053550616,57.59429841295003
1927,173651,41110,100599,-36.14296260126854,44.477351608137816
1928,173671,41106,100600,-39.93131000840106,45.26697319195067
1929,173691,41104,100598,-41.7105648430537,43.0677762011104
1930,173715,41108,100580,-37.064281685898045,24.489067165987375
1931,173730,41103,100590,-42.396309814931094,34.3200075893561
1932,173760,41096,100571,-49.22847444329556,15.74405643761648
1933,173776,41097,100566,-48.05606251091993,10.66510045826059
1934,173792,41094,100584,-50.489815953274835,28.38185328649541
1935,173812,41087,100587,-56.74802472669942,31.036059222742026
1936,173835,41095,100582,-48.58394886059196,25.880905013760987
